"SampleName"	"8. PC-12 Atp2b2 shRNA C"
"System Name"	"Alliance 2"
"Sample Set Name"	"DTtV_15052025 GSL new HPLC"
"Date Acquired"	"5/15/2025 9:21:47 PM BST"
"Sample Set Start Date"	"5/15/2025 2:04:31 PM BST"
0	0.002383423
0.01666667	0.002483368
0.03333333	-0.002506256
0.05	-0.01168594
0.06666667	-0.03033829
0.08333333	-0.04977188
0.1	-0.05992813
0.1166667	-0.05660782
0.1333333	-0.04576797
0.15	-0.03736954
0.1666667	-0.03385391
0.1833333	-0.03043594
0.2	-0.02184219
0.2166667	-0.01393204
0.2333333	-0.01276016
0.25	-0.01783829
0.2666667	-0.02223282
0.2833333	-0.02135391
0.3	-0.01578751
0.3166667	-0.008463288
0.3333333	-0.0001625061
0.35	0.006868744
0.3666667	0.007259369
0.3833333	0.003646088
0.4	0.0004234314
0.4166667	-0.001920319
0.4333333	-0.0070961
0.45	-0.01393204
0.4666667	-0.01520157
0.4833333	-0.01061173
0.5	-0.0055336
0.5166667	-0.006119537
0.5333333	-0.01236954
0.55	-0.02096329
0.5666667	-0.02779922
0.5833333	-0.02526016
0.6	-0.01930313
0.6166667	-0.02399063
0.6333333	-0.04108047
0.65	-0.05699844
0.6666667	-0.06344376
0.6833333	-0.06725235
0.7	-0.07389297
0.7166667	-0.07887344
0.7333333	-0.0789711
0.75	-0.07594375
0.7666667	-0.07145157
0.7833333	-0.06315079
0.8	-0.05426407
0.8166667	-0.04996719
0.8333333	-0.05143204
0.85	-0.05445938
0.8666667	-0.05641251
0.8833333	-0.05699844
0.9	-0.05953751
0.9166667	-0.06549454
0.9333333	-0.06891251
0.95	-0.0626625
0.9666667	-0.05445938
0.9833333	-0.05572891
1	-0.06637345
1.016667	-0.07291641
1.033333	-0.06861953
1.05	-0.05973282
1.066667	-0.05416641
1.083333	-0.05231094
1.1	-0.05436172
1.116667	-0.05875625
1.133333	-0.06227188
1.15	-0.06119766
1.166667	-0.05924454
1.183333	-0.06139297
1.2	-0.06324844
1.216667	-0.05807266
1.233333	-0.05045547
1.25	-0.0508461
1.266667	-0.06061172
1.283333	-0.06940079
1.3	-0.06813125
1.316667	-0.06129532
1.333333	-0.06061172
1.35	-0.06549454
1.366667	-0.07018204
1.383333	-0.07360001
1.4	-0.0780922
1.416667	-0.07985
1.433333	-0.07643203
1.45	-0.07340469
1.466667	-0.07545547
1.483333	-0.08121719
1.5	-0.08561172
1.516667	-0.08668594
1.533333	-0.08356094
1.55	-0.07750626
1.566667	-0.07408829
1.583333	-0.07818985
1.6	-0.08600235
1.616667	-0.08893204
1.633333	-0.08746719
1.65	-0.08531876
1.666667	-0.0836586
1.683333	-0.07770157
1.7	-0.064225
1.716667	-0.04371719
1.733333	-0.01510391
1.75	0.01673203
1.766667	0.04368515
1.783333	0.05823593
1.8	0.06438828
1.816667	0.06927109
1.833333	0.07278671
1.85	0.06800155
1.866667	0.05120468
1.883333	0.02913437
1.9	0.01018906
1.916667	0.001595306
1.933333	0.001204681
1.95	-0.0007484436
1.966667	-0.01246719
1.983333	-0.02623672
2	-0.0305336
2.016667	-0.02828751
2.033333	-0.03229141
2.05	-0.04645157
2.066667	-0.06149063
2.083333	-0.07076798
2.1	-0.07193985
2.116667	-0.07154922
2.133333	-0.07526016
2.15	-0.08483048
2.166667	-0.09488907
2.183333	-0.1001625
2.2	-0.1015297
2.216667	-0.1055336
2.233333	-0.1148109
2.25	-0.1245766
2.266667	-0.1328773
2.283333	-0.139225
2.3	-0.1416664
2.316667	-0.1416664
2.333333	-0.145475
2.35	-0.1561195
2.366667	-0.1688149
2.383333	-0.1814125
2.4	-0.1965492
2.416667	-0.2098305
2.433333	-0.2151039
2.45	-0.2123695
2.466667	-0.2116859
2.483333	-0.2184242
2.5	-0.2255531
2.516667	-0.2292641
2.533333	-0.2340492
2.55	-0.2421547
2.566667	-0.2480141
2.583333	-0.248893
2.6	-0.2474281
2.616667	-0.2458656
2.633333	-0.2397133
2.65	-0.2261391
2.666667	-0.207975
2.683333	-0.1838539
2.7	-0.1477211
2.716667	-0.08717422
2.733333	0.0003257752
2.75	0.1063805
2.766667	0.22015
2.783333	0.3380211
2.8	0.4640953
2.816667	0.6066734
2.833333	0.7750328
2.85	0.9769859
2.866667	1.206478
2.883333	1.443099
2.9	1.663021
2.916667	1.85892
2.933333	2.042904
2.95	2.223373
2.966667	2.389388
2.983333	2.530697
3	2.656576
3.016667	2.786947
3.033333	2.932259
3.05	3.100033
3.066667	3.303451
3.083333	3.547689
3.1	3.81722
3.116667	4.08431
3.133333	4.329232
3.15	4.542318
3.166667	4.718099
3.183333	4.854818
3.2	4.962337
3.216667	5.068881
3.233333	5.211361
3.25	5.425521
3.266667	5.785482
3.283333	6.488607
3.3	7.874155
3.316667	10.26029
3.333333	13.67113
3.35	17.68314
3.366667	21.56771
3.383333	24.64877
3.4	26.57933
3.416667	27.39613
3.433333	27.53206
3.45	28.29691
3.466667	33.12962
3.483333	48.64808
3.5	82.91996
3.516667	140.1831
3.533333	216.3172
3.55	300.5172
3.566667	381.7158
3.583333	452.6178
3.6	508.3576
3.616667	543.9321
3.633333	554.8643
3.65	540.1917
3.666667	504.2087
3.683333	455.1452
3.7	401.973
3.716667	351.7203
3.733333	308.5036
3.75	274.0204
3.766667	248.6274
3.783333	232.2817
3.8	224.8396
3.816667	225.7848
3.833333	233.8264
3.85	246.5019
3.866667	259.5291
3.883333	266.8513
3.9	263.078
3.916667	246.4564
3.933333	218.5567
3.95	182.2251
3.966667	141.7884
3.983333	103.6427
4	73.48216
4.016667	52.85052
4.033333	39.69935
4.05	31.34349
4.066667	25.91429
4.083333	22.22718
4.1	19.5141
4.116667	17.34486
4.133333	15.55785
4.15	14.12259
4.166667	13.02035
4.183333	12.21097
4.2	11.63861
4.216667	11.24066
4.233333	10.95316
4.25	10.72406
4.266667	10.52425
4.283333	10.34896
4.3	10.20824
4.316667	10.1183
4.333333	10.10628
4.35	10.20931
4.366667	10.45335
4.383333	10.82679
4.4	11.28324
4.416667	11.75091
4.433333	12.14867
4.45	12.39085
4.466667	12.41068
4.483333	12.18851
4.5	11.75951
4.516667	11.18988
4.533333	10.54115
4.55	9.851206
4.566667	9.147788
4.583333	8.460287
4.6	7.813608
4.616667	7.226596
4.633333	6.709212
4.65	6.284115
4.666667	5.991439
4.683333	5.86517
4.7	5.905599
4.716667	6.072396
4.733333	6.289974
4.75	6.469954
4.766667	6.542904
4.783333	6.498763
4.8	6.384212
4.816667	6.254525
4.833333	6.132064
4.85	6.01097
4.866667	5.88763
4.883333	5.775326
4.9	5.693978
4.916667	5.656673
4.933333	5.674935
4.95	5.763021
4.966667	5.911166
4.983333	6.068197
5	6.175033
5.016667	6.20931
5.033333	6.181478
5.05	6.113412
5.066667	6.030795
5.083333	5.958529
5.1	5.908822
5.116667	5.881185
5.133333	5.863997
5.15	5.83558
5.166667	5.776986
5.183333	5.678646
5.2	5.538607
5.216667	5.359603
5.233333	5.14847
5.25	4.919173
5.266667	4.689584
5.283333	4.474837
5.3	4.284115
5.316667	4.115951
5.333333	3.960384
5.35	3.810189
5.366667	3.671224
5.383333	3.562337
5.4	3.497591
5.416667	3.478158
5.433333	3.496419
5.45	3.546127
5.466667	3.612533
5.483333	3.675423
5.5	3.712924
5.516667	3.711263
5.533333	3.677377
5.55	3.642806
5.566667	3.659701
5.583333	3.776693
5.6	4.014193
5.616667	4.348861
5.633333	4.711263
5.65	5.009017
5.666667	5.166244
5.683333	5.165951
5.7	5.049252
5.716667	4.875619
5.733333	4.689193
5.75	4.519466
5.766667	4.39056
5.783333	4.318099
5.8	4.299642
5.816667	4.320052
5.833333	4.362338
5.85	4.418099
5.866667	4.478255
5.883333	4.527767
5.9	4.553842
5.916667	4.550814
5.933333	4.512533
5.95	4.434505
5.966667	4.317513
5.983333	4.165267
6	3.981478
6.016667	3.777962
6.033333	3.573568
6.05	3.382455
6.066667	3.208529
6.083333	3.048177
6.1	2.903548
6.116667	2.78597
6.133333	2.702474
6.15	2.649544
6.166667	2.615463
6.183333	2.5889
6.2	2.560384
6.216667	2.523373
6.233333	2.476302
6.25	2.420931
6.266667	2.355013
6.283333	2.281185
6.3	2.210873
6.316667	2.159115
6.333333	2.123861
6.35	2.088607
6.366667	2.045248
6.383333	1.998177
6.4	1.953841
6.416667	1.914584
6.433333	1.883724
6.45	1.86058
6.466667	1.842123
6.483333	1.834701
6.5	1.848177
6.516667	1.87767
6.533333	1.907162
6.55	1.925716
6.566667	1.939681
6.583333	1.953548
6.6	1.96683
6.616667	1.972884
6.633333	1.962631
6.65	1.930599
6.666667	1.884408
6.683333	1.834213
6.7	1.778646
6.716667	1.713998
6.733333	1.642904
6.75	1.578255
6.766667	1.526595
6.783333	1.484798
6.8	1.446908
6.816667	1.412826
6.833333	1.390951
6.85	1.390267
6.866667	1.412728
6.883333	1.455892
6.9	1.517318
6.916667	1.595736
6.933333	1.683236
6.95	1.76263
6.966667	1.821224
6.983333	1.857748
7	1.87181
7.016667	1.866244
7.033333	1.843099
7.05	1.808822
7.066667	1.771029
7.083333	1.73392
7.1	1.701009
7.116667	1.667904
7.133333	1.632162
7.15	1.596908
7.166667	1.57347
7.183333	1.565658
7.2	1.561752
7.216667	1.551107
7.233333	1.537728
7.25	1.522201
7.266667	1.50013
7.283333	1.471615
7.3	1.44681
7.316667	1.439388
7.333333	1.457064
7.35	1.507748
7.366667	1.595541
7.383333	1.722884
7.4	1.880892
7.416667	2.054623
7.433333	2.225131
7.45	2.368294
7.466667	2.456283
7.483333	2.471908
7.5	2.417416
7.516667	2.3139
7.533333	2.18724
7.55	2.049056
7.566667	1.905892
7.583333	1.772103
7.6	1.661849
7.616667	1.57308
7.633333	1.491244
7.65	1.409603
7.666667	1.334505
7.683333	1.272591
7.7	1.22474
7.716667	1.191634
7.733333	1.17806
7.75	1.183822
7.766667	1.195541
7.783333	1.203841
7.8	1.209798
7.816667	1.213509
7.833333	1.21058
7.85	1.201595
7.866667	1.196615
7.883333	1.201693
7.9	1.21097
7.916667	1.218783
7.933333	1.226595
7.95	1.2389
7.966667	1.250326
7.983333	1.253158
8	1.249838
8.016667	1.250814
8.033333	1.258138
8.05	1.264584
8.066667	1.27181
8.083333	1.286752
8.1	1.313021
8.116667	1.345834
8.133333	1.381478
8.15	1.418099
8.166667	1.458041
8.183333	1.512923
8.2	1.596224
8.216667	1.710677
8.233333	1.845638
8.25	1.993392
8.266667	2.153744
8.283333	2.318978
8.3	2.471908
8.316667	2.593392
8.333333	2.670443
8.35	2.693295
8.366667	2.660482
8.383333	2.584506
8.4	2.477962
8.416667	2.344857
8.433333	2.19056
8.45	2.027181
8.466667	1.868099
8.483333	1.72347
8.5	1.599447
8.516667	1.49808
8.533333	1.415658
8.55	1.347787
8.566667	1.289095
8.583333	1.231576
8.6	1.170345
8.616667	1.108529
8.633333	1.059603
8.65	1.033724
8.666667	1.0264
8.683333	1.020931
8.7	1.007943
8.716667	0.9939781
8.733333	0.9829429
8.75	0.9724938
8.766667	0.9650719
8.783333	0.964193
8.8	0.9677086
8.816667	0.9694664
8.833333	0.9652672
8.85	0.960775
8.866667	0.9644859
8.883333	0.9744469
8.9	0.9810875
8.916667	0.9858726
8.933333	1.001791
8.95	1.038314
8.966667	1.088802
8.983333	1.141439
9	1.191439
9.016667	1.242709
9.033333	1.305209
9.05	1.385384
9.066667	1.485189
9.083333	1.601498
9.1	1.726498
9.116667	1.851693
9.133333	1.974545
9.15	2.094662
9.166667	2.202279
9.183333	2.277377
9.2	2.305697
9.216667	2.295345
9.233333	2.252767
9.25	2.176009
9.266667	2.067318
9.283333	1.940462
9.3	1.811947
9.316667	1.688021
9.333333	1.574447
9.35	1.47142
9.366667	1.374252
9.383333	1.282357
9.4	1.201791
9.416667	1.13138
9.433333	1.061361
9.45	0.991732
9.466667	0.9287437
9.483333	0.8758141
9.5	0.8302086
9.516667	0.7912437
9.533333	0.7599937
9.55	0.7342125
9.566667	0.7095054
9.583333	0.6898766
9.6	0.6800133
9.616667	0.6809899
9.633333	0.6818687
9.65	0.6781578
9.666667	0.6776695
9.683333	0.689193
9.7	0.7060875
9.716667	0.723568
9.733333	0.7437828
9.75	0.7680992
9.766667	0.7933922
9.783333	0.8239586
9.8	0.8660485
9.816667	0.9153649
9.833333	0.9629234
9.85	1.008919
9.866667	1.05433
9.883333	1.090951
9.9	1.113607
9.916667	1.123568
9.933333	1.12474
9.95	1.11263
9.966667	1.079818
9.983333	1.026888
10	0.9602867
10.01667	0.8876305
10.03333	0.8122398
10.05	0.7368492
10.06667	0.6722008
10.08333	0.6235679
10.1	0.5841148
10.11667	0.548568
10.13333	0.5178062
10.15	0.4902672
10.16667	0.4597984
10.18333	0.4316734
10.2	0.413607
10.21667	0.4029625
10.23333	0.3905602
10.25	0.3777672
10.26667	0.372982
10.28333	0.3749352
10.3	0.3775719
10.31667	0.3737633
10.33333	0.3642906
10.35	0.354818
10.36667	0.3515953
10.38333	0.3551109
10.4	0.3608727
10.41667	0.3662437
10.43333	0.3684898
10.45	0.3650719
10.46667	0.3563805
10.48333	0.3473961
10.5	0.3428062
10.51667	0.3403648
10.53333	0.3385094
10.55	0.3363609
10.56667	0.3342125
10.58333	0.3291344
10.6	0.3210289
10.61667	0.3143883
10.63333	0.310482
10.65	0.3071617
10.66667	0.3040367
10.68333	0.3056969
10.7	0.3129234
10.71667	0.3180016
10.73333	0.3189781
10.75	0.3176109
10.76667	0.3169273
10.78333	0.3164391
10.8	0.3185875
10.81667	0.3236656
10.83333	0.3305016
10.85	0.3331383
10.86667	0.3274742
10.88333	0.3194664
10.9	0.3192711
10.91667	0.3262047
10.93333	0.3306969
10.95	0.3279625
10.96667	0.3226891
10.98333	0.3222008
11	0.3263023
11.01667	0.3285484
11.03333	0.3264
11.05	0.3252281
11.06667	0.3264976
11.08333	0.326107
11.1	0.319564
11.11667	0.3103844
11.13333	0.3050133
11.15	0.3061852
11.16667	0.3119469
11.18333	0.3154625
11.2	0.3158531
11.21667	0.3145836
11.23333	0.3127281
11.25	0.3097984
11.26667	0.3059898
11.28333	0.3035484
11.3	0.3067711
11.31667	0.3203453
11.33333	0.33265
11.35	0.3312828
11.36667	0.3217125
11.38333	0.3188805
11.4	0.3252281
11.41667	0.3296227
11.43333	0.3303062
11.45	0.3347008
11.46667	0.3406578
11.48333	0.3438805
11.5	0.3477867
11.51667	0.3559898
11.53333	0.3623375
11.55	0.3639976
11.56667	0.361068
11.58333	0.3571617
11.6	0.3561851
11.61667	0.3626305
11.63333	0.3719078
11.65	0.3786461
11.66667	0.3850914
11.68333	0.3964195
11.7	0.4090172
11.71667	0.417318
11.73333	0.4230797
11.75	0.4340172
11.76667	0.4529625
11.78333	0.4767906
11.8	0.4972008
11.81667	0.5124351
11.83333	0.5283531
11.85	0.5488609
11.86667	0.5771812
11.88333	0.610775
11.9	0.6416343
11.91667	0.660482
11.93333	0.6690758
11.95	0.679525
11.96667	0.6956383
11.98333	0.7055992
12	0.7008141
12.01667	0.6858727
12.03333	0.6737633
12.05	0.6702477
12.06667	0.6668297
12.08333	0.6554039
12.1	0.6363609
12.11667	0.6192711
12.13333	0.6119469
12.15	0.6148766
12.16667	0.6178063
12.18333	0.6127281
12.2	0.6017906
12.21667	0.5900719
12.23333	0.5788414
12.25	0.5665367
12.26667	0.5555992
12.28333	0.5490562
12.3	0.5433922
12.31667	0.5414391
12.33333	0.5489586
12.35	0.5639
12.36667	0.5738609
12.38333	0.5708336
12.4	0.5585289
12.41667	0.548568
12.43333	0.5488609
12.45	0.5566734
12.46667	0.5653648
12.48333	0.5682945
12.5	0.567025
12.51667	0.5615562
12.53333	0.5527672
12.55	0.5466148
12.56667	0.5468102
12.58333	0.5498375
12.6	0.5484703
12.61667	0.5466148
12.63333	0.5495445
12.65	0.5541344
12.66667	0.5555016
12.68333	0.5560875
12.7	0.5569664
12.71667	0.5513023
12.73333	0.538314
12.75	0.5277672
12.76667	0.5279625
12.78333	0.5400718
12.8	0.5570641
12.81667	0.567025
12.83333	0.5665367
12.85	0.560775
12.86667	0.5555016
12.88333	0.5527672
12.9	0.5515953
12.91667	0.5533531
12.93333	0.5553063
12.95	0.5560875
12.96667	0.5591148
12.98333	0.5645836
13	0.5653648
13.01667	0.5580406
13.03333	0.5518883
13.05	0.5541344
13.06667	0.5610679
13.08333	0.5659508
13.1	0.5693687
13.11667	0.5742515
13.13333	0.5813805
13.15	0.5898765
13.16667	0.5947593
13.18333	0.5940758
13.2	0.5932945
13.21667	0.6012047
13.23333	0.62015
13.25	0.6491539
13.26667	0.6834313
13.28333	0.7139
13.3	0.7328453
13.31667	0.7381188
13.33333	0.7389
13.35	0.7445641
13.36667	0.7599937
13.38333	0.7818688
13.4	0.7995445
13.41667	0.8081383
13.43333	0.8131188
13.45	0.8191735
13.46667	0.8263023
13.48333	0.829818
13.5	0.8273765
13.51667	0.819857
13.53333	0.8147789
13.55	0.8182945
13.56667	0.8286461
13.58333	0.8381187
13.6	0.8461266
13.61667	0.8553063
13.63333	0.8618492
13.65	0.866732
13.66667	0.8752281
13.68333	0.8912438
13.7	0.9077476
13.71667	0.9148766
13.73333	0.9115562
13.75	0.9027672
13.76667	0.8931969
13.78333	0.8895836
13.8	0.8919274
13.81667	0.8916343
13.83333	0.8814781
13.85	0.8616539
13.86667	0.8370445
13.88333	0.8192711
13.9	0.8127281
13.91667	0.8101891
13.93333	0.8017906
13.95	0.7895836
13.96667	0.7838219
13.98333	0.7894859
14	0.8034508
14.01667	0.82015
14.03333	0.8400719
14.05	0.869857
14.06667	0.9103844
14.08333	0.9624351
14.1	1.027767
14.11667	1.106185
14.13333	1.191927
14.15	1.286068
14.16667	1.395345
14.18333	1.523666
14.2	1.664779
14.21667	1.806185
14.23333	1.938509
14.25	2.061166
14.26667	2.170834
14.28333	2.261459
14.3	2.327279
14.31667	2.370638
14.33333	2.393588
14.35	2.394955
14.36667	2.372494
14.38333	2.328939
14.4	2.271029
14.41667	2.205209
14.43333	2.129623
14.45	2.038998
14.46667	1.936361
14.48333	1.834115
14.5	1.739779
14.51667	1.653841
14.53333	1.578255
14.55	1.509212
14.56667	1.433822
14.58333	1.348763
14.6	1.269271
14.61667	1.209798
14.63333	1.161654
14.65	1.1139
14.66667	1.069759
14.68333	1.036068
14.7	1.012142
14.71667	0.9947594
14.73333	0.9775718
14.75	0.9571617
14.76667	0.936361
14.78333	0.9177086
14.8	0.8991539
14.81667	0.8816735
14.83333	0.8718101
14.85	0.8679039
14.86667	0.8616539
14.88333	0.8523766
14.9	0.8467125
14.91667	0.8473961
14.93333	0.847982
14.95	0.842025
14.96667	0.829818
14.98333	0.8179039
15	0.8150719
15.01667	0.8222984
15.03333	0.8305016
15.05	0.8315758
15.06667	0.8271812
15.08333	0.8219078
15.1	0.8196617
15.11667	0.8247398
15.13333	0.8365563
15.15	0.8472984
15.16667	0.8521813
15.18333	0.8489586
15.2	0.8412437
15.21667	0.8337242
15.23333	0.83265
15.25	0.839193
15.26667	0.8432945
15.28333	0.8421227
15.3	0.8396813
15.31667	0.8374351
15.33333	0.835482
15.35	0.8339195
15.36667	0.8342125
15.38333	0.8321617
15.4	0.8250328
15.41667	0.8184898
15.43333	0.8182945
15.45	0.8248375
15.46667	0.8296226
15.48333	0.8286461
15.5	0.8267906
15.51667	0.8316734
15.53333	0.8415367
15.55	0.8492516
15.56667	0.851107
15.58333	0.8537437
15.6	0.8613609
15.61667	0.8726891
15.63333	0.8851891
15.65	0.8984703
15.66667	0.9057945
15.68333	0.9014
15.7	0.8889977
15.71667	0.8799156
15.73333	0.8790367
15.75	0.886068
15.76667	0.8958336
15.78333	0.9032555
15.8	0.9080406
15.81667	0.9118492
15.83333	0.9144859
15.85	0.9145836
15.86667	0.9162437
15.88333	0.9244469
15.9	0.9317711
15.91667	0.9284508
15.93333	0.9183922
15.95	0.9126304
15.96667	0.9132164
15.98333	0.9151695
16	0.9188805
16.01667	0.9236656
16.03333	0.9243492
16.05	0.9222984
16.06667	0.9281578
16.08333	0.944564
16.1	0.9651695
16.11667	0.9900719
16.13333	1.019271
16.15	1.052084
16.16667	1.088216
16.18333	1.137533
16.2	1.213119
16.21667	1.314193
16.23333	1.436947
16.25	1.583822
16.26667	1.758041
16.28333	1.956185
16.3	2.176205
16.31667	2.424056
16.33333	2.702181
16.35	3.003939
16.36667	3.316927
16.38333	3.628939
16.4	3.928451
16.41667	4.209603
16.43333	4.471517
16.45	4.713802
16.46667	4.936459
16.48333	5.141634
16.5	5.33558
16.51667	5.533138
16.53333	5.760385
16.55	6.049447
16.56667	6.425814
16.58333	6.912533
16.6	7.533823
16.61667	8.309115
16.63333	9.243784
16.65	10.32113
16.66667	11.50648
16.68333	12.76214
16.7	14.05013
16.71667	15.31693
16.73333	16.49203
16.75	17.51146
16.76667	18.339
16.78333	18.94183
16.8	19.285
16.81667	19.34945
16.83333	19.14632
16.85	18.71087
16.86667	18.08246
16.88333	17.30765
16.9	16.43656
16.91667	15.51156
16.93333	14.57054
16.95	13.64779
16.96667	12.76908
16.98333	11.94281
17	11.16507
17.01667	10.44203
17.03333	9.784117
17.05	9.182359
17.06667	8.610092
17.08333	8.051889
17.1	7.51019
17.11667	6.989486
17.13333	6.486263
17.15	6.000814
17.16667	5.540658
17.18333	5.109701
17.2	4.70472
17.21667	4.323275
17.23333	3.969076
17.25	3.650326
17.26667	3.368783
17.28333	3.113607
17.3	2.873177
17.31667	2.647006
17.33333	2.445736
17.35	2.277669
17.36667	2.136849
17.38333	2.010482
17.4	1.892318
17.41667	1.786263
17.43333	1.694759
17.45	1.617806
17.46667	1.555404
17.48333	1.503939
17.5	1.458041
17.51667	1.414779
17.53333	1.373959
17.55	1.336752
17.56667	1.305697
17.58333	1.285189
17.6	1.271127
17.61667	1.261459
17.63333	1.257455
17.65	1.25599
17.66667	1.252474
17.68333	1.247591
17.7	1.245345
17.71667	1.247201
17.73333	1.253158
17.75	1.264486
17.76667	1.282455
17.78333	1.308236
17.8	1.340072
17.81667	1.373861
17.83333	1.409798
17.85	1.449837
17.86667	1.493685
17.88333	1.536068
17.9	1.573763
17.91667	1.61263
17.93333	1.658431
17.95	1.708138
17.96667	1.750521
17.98333	1.778451
18	1.789388
18.01667	1.787142
18.03333	1.779232
18.05	1.773373
18.06667	1.767709
18.08333	1.752572
18.1	1.722787
18.11667	1.683041
18.13333	1.642025
18.15	1.602084
18.16667	1.563216
18.18333	1.526498
18.2	1.497884
18.21667	1.477279
18.23333	1.458822
18.25	1.437435
18.26667	1.414681
18.28333	1.395736
18.3	1.381185
18.31667	1.365755
18.33333	1.347103
18.35	1.335091
18.36667	1.334798
18.38333	1.338509
18.4	1.3389
18.41667	1.336459
18.43333	1.33392
18.45	1.332259
18.46667	1.332162
18.48333	1.33431
18.5	1.336166
18.51667	1.337631
18.53333	1.335287
18.55	1.327572
18.56667	1.318197
18.58333	1.314095
18.6	1.318002
18.61667	1.321224
18.63333	1.317709
18.65	1.310677
18.66667	1.306576
18.68333	1.308627
18.7	1.315365
18.71667	1.324349
18.73333	1.330892
18.75	1.32933
18.76667	1.322103
18.78333	1.315951
18.8	1.317709
18.81667	1.326009
18.83333	1.329427
18.85	1.32474
18.86667	1.318685
18.88333	1.317318
18.9	1.318197
18.91667	1.319466
18.93333	1.319369
18.95	1.31517
18.96667	1.308334
18.98333	1.30267
19	1.300716
19.01667	1.302474
19.03333	1.306087
19.05	1.306576
19.06667	1.305404
19.08333	1.310873
19.1	1.322884
19.11667	1.332357
19.13333	1.332943
19.15	1.327572
19.16667	1.322494
19.18333	1.324545
19.2	1.335873
19.21667	1.348568
19.23333	1.352474
19.25	1.344173
19.26667	1.335384
19.28333	1.332552
19.3	1.334798
19.31667	1.339095
19.33333	1.34642
19.35	1.36058
19.36667	1.377474
19.38333	1.387435
19.4	1.387435
19.41667	1.381966
19.43333	1.374545
19.45	1.367513
19.46667	1.366439
19.48333	1.376498
19.5	1.393099
19.51667	1.409701
19.53333	1.422396
19.55	1.433627
19.56667	1.446224
19.58333	1.461361
19.6	1.48724
19.61667	1.522201
19.63333	1.557845
19.65	1.584408
19.66667	1.603939
19.68333	1.622298
19.7	1.642025
19.71667	1.659896
19.73333	1.669662
19.75	1.667709
19.76667	1.66058
19.78333	1.659017
19.8	1.665365
19.81667	1.671127
19.83333	1.672884
19.85	1.67767
19.86667	1.690755
19.88333	1.708334
19.9	1.723861
19.91667	1.731771
19.93333	1.733138
19.95	1.739095
19.96667	1.76097
19.98333	1.79515
20	1.827474
20.01667	1.845345
20.03333	1.852767
20.05	1.855404
20.06667	1.858431
20.08333	1.865951
20.1	1.876986
20.11667	1.883138
20.13333	1.878451
20.15	1.868197
20.16667	1.858822
20.18333	1.846615
20.2	1.827767
20.21667	1.805306
20.23333	1.787435
20.25	1.778451
20.26667	1.77767
20.28333	1.777962
20.3	1.775423
20.31667	1.77142
20.33333	1.771224
20.35	1.774837
20.36667	1.781478
20.38333	1.791341
20.4	1.806771
20.41667	1.825423
20.43333	1.843978
20.45	1.86556
20.46667	1.889486
20.48333	1.909701
20.5	1.919173
20.51667	1.920834
20.53333	1.919955
20.55	1.917611
20.56667	1.917318
20.58333	1.922591
20.6	1.935091
20.61667	1.953646
20.63333	1.982455
20.65	2.026302
20.66667	2.086947
20.68333	2.167611
20.7	2.275326
20.71667	2.411752
20.73333	2.572787
20.75	2.753841
20.76667	2.955795
20.78333	3.182845
20.8	3.429427
20.81667	3.681185
20.83333	3.922591
20.85	4.147298
20.86667	4.354427
20.88333	4.540755
20.9	4.689974
20.91667	4.785091
20.93333	4.825033
20.95	4.822787
20.96667	4.789876
20.98333	4.734212
21	4.670443
21.01667	4.615267
21.03333	4.577084
21.05	4.560678
21.06667	4.576205
21.08333	4.630892
21.1	4.723177
21.11667	4.856771
21.13333	5.044076
21.15	5.28431
21.16667	5.556185
21.18333	5.838216
21.2	6.116146
21.21667	6.380306
21.23333	6.619466
21.25	6.822396
21.26667	6.974642
21.28333	7.064193
21.3	7.088802
21.31667	7.060287
21.33333	6.99017
21.35	6.883431
21.36667	6.743295
21.38333	6.577962
21.4	6.399349
21.41667	6.220248
21.43333	6.051205
21.45	5.892611
21.46667	5.740853
21.48333	5.596908
21.5	5.467025
21.51667	5.349056
21.53333	5.232259
21.55	5.109798
21.56667	4.979818
21.58333	4.83763
21.6	4.679134
21.61667	4.513998
21.63333	4.353451
21.65	4.196615
21.66667	4.041341
21.68333	3.893588
21.7	3.75765
21.71667	3.629916
21.73333	3.507748
21.75	3.395345
21.76667	3.297005
21.78333	3.210775
21.8	3.129525
21.81667	3.047494
21.83333	2.969271
21.85	2.9014
21.86667	2.840169
21.88333	2.771908
21.9	2.698666
21.91667	2.630404
21.93333	2.568392
21.95	2.501791
21.96667	2.425912
21.98333	2.350423
22	2.284408
22.01667	2.226107
22.03333	2.170834
22.05	2.119174
22.06667	2.072982
22.08333	2.033041
22.1	1.999642
22.11667	1.975716
22.13333	1.961752
22.15	1.954818
22.16667	1.949642
22.18333	1.944076
22.2	1.938802
22.21667	1.937142
22.23333	1.947201
22.25	1.97474
22.26667	2.014486
22.28333	2.056185
22.3	2.093392
22.31667	2.123568
22.33333	2.149349
22.35	2.1764
22.36667	2.205111
22.38333	2.229037
22.4	2.245443
22.41667	2.258822
22.43333	2.271517
22.45	2.278744
22.46667	2.278646
22.48333	2.269759
22.5	2.253841
22.51667	2.235677
22.53333	2.21888
22.55	2.203939
22.56667	2.183041
22.58333	2.154916
22.6	2.126791
22.61667	2.107748
22.63333	2.091244
22.65	2.068392
22.66667	2.041244
22.68333	2.023861
22.7	2.02181
22.71667	2.024251
22.73333	2.020638
22.75	2.011947
22.76667	2.010091
22.78333	2.022982
22.8	2.046908
22.81667	2.075423
22.83333	2.105209
22.85	2.14642
22.86667	2.210091
22.88333	2.294369
22.9	2.384799
22.91667	2.478841
22.93333	2.594759
22.95	2.755208
22.96667	2.975716
22.98333	3.273275
23	3.676009
23.01667	4.222299
23.03333	4.946224
23.05	5.879525
23.06667	7.061166
23.08333	8.521616
23.1	10.27767
23.11667	12.32767
23.13333	14.65502
23.15	17.22279
23.16667	19.96781
23.18333	22.80482
23.2	25.63109
23.21667	28.33314
23.23333	30.80091
23.25	32.92894
23.26667	34.62396
23.28333	35.81625
23.3	36.47191
23.31667	36.59281
23.33333	36.20042
23.35	35.33099
23.36667	34.05082
23.38333	32.45013
23.4	30.62308
23.41667	28.64759
23.43333	26.59759
23.45	24.54349
23.46667	22.53646
23.48333	20.60834
23.5	18.77914
23.51667	17.06322
23.53333	15.47748
23.55	14.03695
23.56667	12.7391
23.58333	11.56488
23.6	10.49701
23.61667	9.532652
23.63333	8.666537
23.65	7.891538
23.66667	7.203549
23.68333	6.598372
23.7	6.061068
23.71667	5.578646
23.73333	5.15101
23.75	4.783431
23.76667	4.475228
23.78333	4.218685
23.8	4.003646
23.81667	3.820736
23.83333	3.667318
23.85	3.54808
23.86667	3.461459
23.88333	3.398177
23.9	3.344857
23.91667	3.298177
23.93333	3.263607
23.95	3.244076
23.96667	3.23597
23.98333	3.231087
24	3.225814
24.01667	3.217513
24.03333	3.202865
24.05	3.182064
24.06667	3.161068
24.08333	3.143392
24.1	3.127084
24.11667	3.10472
24.13333	3.071419
24.15	3.035384
24.16667	3.009994
24.18333	3.002963
24.2	3.011556
24.21667	3.031087
24.23333	3.053841
24.25	3.08099
24.26667	3.119564
24.28333	3.173861
24.3	3.238705
24.31667	3.308724
24.33333	3.389388
24.35	3.484701
24.36667	3.586654
24.38333	3.682162
24.4	3.766634
24.41667	3.839681
24.43333	3.900131
24.45	3.949837
24.46667	3.989681
24.48333	4.014974
24.5	4.022884
24.51667	4.013216
24.53333	3.992318
24.55	3.965853
24.56667	3.949154
24.58333	3.963802
24.6	4.021517
24.61667	4.130892
24.63333	4.317708
24.65	4.623178
24.66667	5.088021
24.68333	5.741342
24.7	6.614974
24.71667	7.74476
24.73333	9.162729
24.75	10.89027
24.76667	12.92914
24.78333	15.26263
24.8	17.85482
24.81667	20.64935
24.83333	23.56839
24.85	26.51126
24.86667	29.36458
24.88333	32.01888
24.9	34.37132
24.91667	36.32874
24.93333	37.8139
24.95	38.78167
24.96667	39.22093
24.98333	39.14437
25	38.57835
25.01667	37.57074
25.03333	36.19261
25.05	34.52308
25.06667	32.63587
25.08333	30.60746
25.1	28.52288
25.11667	26.44378
25.13333	24.40443
25.15	22.435
25.16667	20.56195
25.18333	18.79515
25.2	17.13588
25.21667	15.59798
25.23333	14.18705
25.25	12.89076
25.26667	11.69369
25.28333	10.60121
25.3	9.622397
25.31667	8.745834
25.33333	7.951303
25.35	7.236069
25.36667	6.611459
25.38333	6.068392
25.4	5.583431
25.41667	5.147103
25.43333	4.765756
25.45	4.437533
25.46667	4.154818
25.48333	3.914779
25.5	3.717025
25.51667	3.559505
25.53333	3.439584
25.55	3.3514
25.56667	3.287533
25.58333	3.244271
25.6	3.222494
25.61667	3.229134
25.63333	3.268392
25.65	3.336947
25.66667	3.422982
25.68333	3.520931
25.7	3.630013
25.71667	3.747982
25.73333	3.870052
25.75	3.996029
25.76667	4.123959
25.78333	4.247884
25.8	4.366244
25.81667	4.482553
25.83333	4.598666
25.85	4.714486
25.86667	4.831088
25.88333	4.948568
25.9	5.064291
25.91667	5.17933
25.93333	5.297006
25.95	5.416049
25.96667	5.525912
25.98333	5.61722
26	5.69056
26.01667	5.7514
26.03333	5.80013
26.05	5.828256
26.06667	5.824252
26.08333	5.781673
26.1	5.705404
26.11667	5.602865
26.13333	5.481966
26.15	5.338705
26.16667	5.169759
26.18333	4.984994
26.2	4.800619
26.21667	4.624154
26.23333	4.446712
26.25	4.259994
26.26667	4.069857
26.28333	3.891048
26.3	3.733236
26.31667	3.595736
26.33333	3.474545
26.35	3.367513
26.36667	3.272006
26.38333	3.186459
26.4	3.112533
26.41667	3.058236
26.43333	3.032943
26.45	3.036654
26.46667	3.065072
26.48333	3.120736
26.5	3.217318
26.51667	3.368001
26.53333	3.574935
26.55	3.839681
26.56667	4.167025
26.58333	4.560287
26.6	5.011556
26.61667	5.504134
26.63333	6.020541
26.65	6.549349
26.66667	7.079427
26.68333	7.592221
26.7	8.064682
26.71667	8.471518
26.73333	8.792417
26.75	9.011752
26.76667	9.125229
26.78333	9.140464
26.8	9.069565
26.81667	8.916147
26.83333	8.681674
26.85	8.378744
26.86667	8.030698
26.88333	7.655698
26.9	7.267807
26.91667	6.881185
26.93333	6.500814
26.95	6.126498
26.96667	5.76224
26.98333	5.420541
27	5.109115
27.01667	4.827962
27.03333	4.572396
27.05	4.337045
27.06667	4.115658
27.08333	3.910873
27.1	3.73265
27.11667	3.582455
27.13333	3.451302
27.15	3.334798
27.16667	3.236654
27.18333	3.163314
27.2	3.1139
27.21667	3.085384
27.23333	3.080892
27.25	3.10599
27.26667	3.163216
27.28333	3.254232
27.3	3.391146
27.31667	3.591634
27.33333	3.86263
27.35	4.202767
27.36667	4.613021
27.38333	5.098275
27.4	5.658822
27.41667	6.286752
27.43333	6.966537
27.45	7.676401
27.46667	8.392612
27.48333	9.092026
27.5	9.758432
27.51667	10.3721
27.53333	10.90628
27.55	11.33929
27.56667	11.65804
27.58333	11.85775
27.6	11.92884
27.61667	11.8596
27.63333	11.65814
27.65	11.35814
27.66667	10.98802
27.68333	10.56146
27.7	10.08246
27.71667	9.565269
27.73333	9.032163
27.75	8.505307
27.76667	7.998569
27.78333	7.51351
27.8	7.048666
27.81667	6.607553
27.83333	6.198275
27.85	5.827181
27.86667	5.493099
27.88333	5.189779
27.9	4.9139
27.91667	4.668588
27.93333	4.453841
27.95	4.267025
27.96667	4.104232
27.98333	3.962826
28	3.841439
28.01667	3.737728
28.03333	3.64681
28.05	3.565951
28.06667	3.489583
28.08333	3.412631
28.1	3.33724
28.11667	3.271029
28.13333	3.214877
28.15	3.160873
28.16667	3.106283
28.18333	3.058919
28.2	3.022103
28.21667	2.990658
28.23333	2.953939
28.25	2.912435
28.26667	2.874545
28.28333	2.851205
28.3	2.843099
28.31667	2.84349
28.33333	2.845052
28.35	2.84681
28.36667	2.851107
28.38333	2.858822
28.4	2.872982
28.41667	2.89681
28.43333	2.928744
28.45	2.965755
28.46667	3.002767
28.48333	3.037728
28.5	3.072591
28.51667	3.111068
28.53333	3.153939
28.55	3.199642
28.56667	3.247494
28.58333	3.301986
28.6	3.367904
28.61667	3.443783
28.63333	3.522006
28.65	3.591927
28.66667	3.649642
28.68333	3.70433
28.7	3.765462
28.71667	3.827767
28.73333	3.881673
28.75	3.922005
28.76667	3.950326
28.78333	3.961556
28.8	3.952767
28.81667	3.927181
28.83333	3.893783
28.85	3.855306
28.86667	3.806087
28.88333	3.744271
28.9	3.683627
28.91667	3.635677
28.93333	3.59642
28.95	3.560091
28.96667	3.53597
28.98333	3.534115
29	3.547494
29.01667	3.560287
29.03333	3.568295
29.05	3.582845
29.06667	3.613607
29.08333	3.656673
29.1	3.708822
29.11667	3.768783
29.13333	3.836068
29.15	3.912338
29.16667	4.01058
29.18333	4.138412
29.2	4.292025
29.21667	4.465463
29.23333	4.663607
29.25	4.901107
29.26667	5.182455
29.28333	5.492806
29.3	5.809017
29.31667	6.122103
29.33333	6.436068
29.35	6.751986
29.36667	7.050912
29.38333	7.30853
29.4	7.511167
29.41667	7.657651
29.43333	7.739291
29.45	7.739096
29.46667	7.654721
29.48333	7.50853
29.5	7.325326
29.51667	7.113998
29.53333	6.874642
29.55	6.611556
29.56667	6.336849
29.58333	6.057748
29.6	5.777474
29.61667	5.497201
29.63333	5.22308
29.65	4.965169
29.66667	4.726498
29.68333	4.507748
29.7	4.311361
29.71667	4.137728
29.73333	3.982162
29.75	3.839486
29.76667	3.706088
29.78333	3.584115
29.8	3.479818
29.81667	3.395833
29.83333	3.323275
29.85	3.254134
29.86667	3.190365
29.88333	3.131771
29.9	3.076986
29.91667	3.032748
29.93333	3.008334
29.95	3.001205
29.96667	2.996029
29.98333	2.983627
30	2.965951
30.01667	2.960091
30.03333	2.976107
30.05	3.009603
30.06667	3.048373
30.08333	3.08597
30.1	3.126498
30.11667	3.172787
30.13333	3.221029
30.15	3.272298
30.16667	3.331771
30.18333	3.405013
30.2	3.493294
30.21667	3.594759
30.23333	3.703646
30.25	3.81683
30.26667	3.94515
30.28333	4.114779
30.3	4.349252
30.31667	4.656966
30.33333	5.039486
30.35	5.501498
30.36667	6.045736
30.38333	6.666537
30.4	7.357162
30.41667	8.112729
30.43333	8.916733
30.45	9.741441
30.46667	10.55726
30.48333	11.33812
30.5	12.05609
30.51667	12.6764
30.53333	13.16
30.55	13.48431
30.56667	13.6513
30.58333	13.67377
30.6	13.55238
30.61667	13.28695
30.63333	12.90043
30.65	12.42904
30.66667	11.89378
30.68333	11.30042
30.7	10.66595
30.71667	10.02367
30.73333	9.401304
30.75	8.80599
30.76667	8.237826
30.78333	7.704819
30.8	7.213022
30.81667	6.763216
30.83333	6.346322
30.85	5.959506
30.86667	5.604916
30.88333	5.283041
30.9	4.996127
30.91667	4.747396
30.93333	4.534701
30.95	4.347299
30.96667	4.174838
30.98333	4.018197
31	3.881088
31.01667	3.763021
31.03333	3.657943
31.05	3.564974
31.06667	3.485189
31.08333	3.419369
31.1	3.364974
31.11667	3.319955
31.13333	3.280013
31.15	3.238509
31.16667	3.196322
31.18333	3.160677
31.2	3.134603
31.21667	3.114974
31.23333	3.094955
31.25	3.076693
31.26667	3.062045
31.28333	3.05599
31.3	3.062337
31.31667	3.07474
31.33333	3.085384
31.35	3.092611
31.36667	3.101498
31.38333	3.113119
31.4	3.125033
31.41667	3.133138
31.43333	3.137435
31.45	3.144759
31.46667	3.156087
31.48333	3.163705
31.5	3.160677
31.51667	3.15433
31.53333	3.152279
31.55	3.151693
31.56667	3.144955
31.58333	3.129818
31.6	3.110873
31.61667	3.09349
31.63333	3.084603
31.65	3.079525
31.66667	3.068978
31.68333	3.04808
31.7	3.024544
31.71667	3.00765
31.73333	3.000521
31.75	2.994564
31.76667	2.985091
31.78333	2.975716
31.8	2.972103
31.81667	2.969564
31.83333	2.962924
31.85	2.956283
31.86667	2.95472
31.88333	2.952181
31.9	2.941341
31.91667	2.927572
31.93333	2.922689
31.95	2.926986
31.96667	2.928451
31.98333	2.92347
32	2.919955
32.01667	2.926498
32.03333	2.946322
32.05	2.968685
32.06667	2.986068
32.08333	2.997689
32.1	3.014095
32.11667	3.037631
32.13333	3.064388
32.15	3.094662
32.16667	3.131088
32.18333	3.167318
32.2	3.195638
32.21667	3.213119
32.23333	3.226107
32.25	3.238607
32.26667	3.247884
32.28333	3.253646
32.3	3.258724
32.31667	3.261459
32.33333	3.254623
32.35	3.236947
32.36667	3.22015
32.38333	3.212044
32.4	3.202377
32.41667	3.183627
32.43333	3.160873
32.45	3.139779
32.46667	3.119662
32.48333	3.097298
32.5	3.077572
32.51667	3.066341
32.53333	3.059701
32.55	3.052377
32.56667	3.045638
32.58333	3.042318
32.6	3.041244
32.61667	3.039486
32.63333	3.03558
32.65	3.029916
32.66667	3.024349
32.68333	3.023177
32.7	3.022103
32.71667	3.013705
32.73333	3.00013
32.75	2.992513
32.76667	2.995931
32.78333	3.004037
32.8	3.004916
32.81667	2.996712
32.83333	2.989681
32.85	2.995443
32.86667	3.006576
32.88333	3.002474
32.9	2.979232
32.91667	2.955502
32.93333	2.951595
32.95	2.963412
32.96667	2.975521
32.98333	2.978158
33	2.974056
33.01667	2.971029
33.03333	2.970345
33.05	2.970443
33.06667	2.974349
33.08333	2.984798
33.1	2.995541
33.11667	3.004818
33.13333	3.013509
33.15	3.024642
33.16667	3.039486
33.18333	3.062826
33.2	3.095443
33.21667	3.131966
33.23333	3.166634
33.25	3.201693
33.26667	3.242513
33.28333	3.287045
33.3	3.324642
33.31667	3.3514
33.33333	3.369271
33.35	3.381869
33.36667	3.396615
33.38333	3.416634
33.4	3.437435
33.41667	3.443197
33.43333	3.42806
33.45	3.405697
33.46667	3.391439
33.48333	3.383138
33.5	3.364877
33.51667	3.333333
33.53333	3.307259
33.55	3.296712
33.56667	3.293294
33.58333	3.283724
33.6	3.262142
33.61667	3.234896
33.63333	3.211654
33.65	3.200716
33.66667	3.197494
33.68333	3.189877
33.7	3.170248
33.71667	3.145248
33.73333	3.123568
33.75	3.110384
33.76667	3.107259
33.78333	3.111263
33.8	3.1139
33.81667	3.110384
33.83333	3.104916
33.85	3.096908
33.86667	3.086459
33.88333	3.079427
33.9	3.079525
33.91667	3.077474
33.93333	3.069662
33.95	3.067123
33.96667	3.078255
33.98333	3.09681
34	3.111263
34.01667	3.113802
34.03333	3.105599
34.05	3.093587
34.06667	3.088998
34.08333	3.089095
34.1	3.088998
34.11667	3.089584
34.13333	3.091341
34.15	3.089584
34.16667	3.084213
34.18333	3.081966
34.2	3.083041
34.21667	3.078158
34.23333	3.064291
34.25	3.054037
34.26667	3.059994
34.28333	3.075716
34.3	3.088119
34.31667	3.09388
34.33333	3.098373
34.35	3.103939
34.36667	3.108236
34.38333	3.112826
34.4	3.115853
34.41667	3.114681
34.43333	3.109603
34.45	3.105111
34.46667	3.103549
34.48333	3.107357
34.5	3.117611
34.51667	3.125228
34.53333	3.120443
34.55	3.112728
34.56667	3.118685
34.58333	3.135873
34.6	3.150716
34.61667	3.158627
34.63333	3.167123
34.65	3.174349
34.66667	3.174154
34.68333	3.165658
34.7	3.152181
34.71667	3.140462
34.73333	3.138216
34.75	3.143978
34.76667	3.14642
34.78333	3.144466
34.8	3.145248
34.81667	3.151205
34.83333	3.157357
34.85	3.162631
34.86667	3.171322
34.88333	3.180501
34.9	3.183529
34.91667	3.180501
34.93333	3.177767
34.95	3.176205
34.96667	3.173666
34.98333	3.170443
35	3.169173
35.01667	3.172396
35.03333	3.179525
35.05	3.190755
35.06667	3.199544
35.08333	3.202865
35.1	3.199935
35.11667	3.195931
35.13333	3.195931
35.15	3.196224
35.16667	3.193588
35.18333	3.189974
35.2	3.189681
35.21667	3.190853
35.23333	3.190072
35.25	3.184408
35.26667	3.178841
35.28333	3.180794
35.3	3.193099
35.31667	3.206771
35.33333	3.211556
35.35	3.206673
35.36667	3.20013
35.38333	3.201205
35.4	3.209115
35.41667	3.22015
35.43333	3.230697
35.45	3.232455
35.46667	3.225423
35.48333	3.217513
35.5	3.217806
35.51667	3.223275
35.53333	3.22933
35.55	3.233138
35.56667	3.234212
35.58333	3.234505
35.6	3.236752
35.61667	3.243294
35.63333	3.251009
35.65	3.256576
35.66667	3.260091
35.68333	3.263998
35.7	3.271127
35.71667	3.279134
35.73333	3.284017
35.75	3.285482
35.76667	3.283822
35.78333	3.281283
35.8	3.281869
35.81667	3.284798
35.83333	3.282259
35.85	3.26722
35.86667	3.248177
35.88333	3.238216
35.9	3.238705
35.91667	3.244662
35.93333	3.250423
35.95	3.256771
35.96667	3.267806
35.98333	3.281673
36	3.292123
36.01667	3.29681
36.03333	3.301693
36.05	3.307845
36.06667	3.310775
36.08333	3.307162
36.1	3.305209
36.11667	3.307357
36.13333	3.31224
36.15	3.313119
36.16667	3.309994
36.18333	3.305111
36.2	3.301595
36.21667	3.300228
36.23333	3.301107
36.25	3.303158
36.26667	3.303548
36.28333	3.300619
36.3	3.29515
36.31667	3.291341
36.33333	3.294271
36.35	3.308334
36.36667	3.332845
36.38333	3.356576
36.4	3.367025
36.41667	3.36097
36.43333	3.344759
36.45	3.328451
36.46667	3.322299
36.48333	3.328744
36.5	3.339877
36.51667	3.349056
36.53333	3.354818
36.55	3.35638
36.56667	3.352572
36.58333	3.349935
36.6	3.357259
36.61667	3.369564
36.63333	3.377865
36.65	3.378451
36.66667	3.374252
36.68333	3.370443
36.7	3.371127
36.71667	3.374837
36.73333	3.379525
36.75	3.381478
36.76667	3.377963
36.78333	3.37474
36.8	3.377474
36.81667	3.383236
36.83333	3.383626
36.85	3.378548
36.86667	3.37347
36.88333	3.369759
36.9	3.370931
36.91667	3.380599
36.93333	3.395931
36.95	3.406869
36.96667	3.406576
36.98333	3.39808
37	3.392025
37.01667	3.392318
37.03333	3.392709
37.05	3.394369
37.06667	3.408431
37.08333	3.433431
37.1	3.452474
37.11667	3.451791
37.13333	3.434798
37.15	3.416537
37.16667	3.411166
37.18333	3.419076
37.2	3.425814
37.21667	3.420345
37.23333	3.411556
37.25	3.41224
37.26667	3.417904
37.28333	3.41888
37.3	3.418685
37.31667	3.423666
37.33333	3.430111
37.35	3.434408
37.36667	3.439193
37.38333	3.448861
37.4	3.460384
37.41667	3.463705
37.43333	3.455111
37.45	3.444369
37.46667	3.444955
37.48333	3.455404
37.5	3.461849
37.51667	3.45931
37.53333	3.454232
37.55	3.453939
37.56667	3.458627
37.58333	3.466927
37.6	3.47933
37.61667	3.491244
37.63333	3.495541
37.65	3.491732
37.66667	3.487533
37.68333	3.48763
37.7	3.488998
37.71667	3.48763
37.73333	3.484701
37.75	3.483431
37.76667	3.485873
37.78333	3.491439
37.8	3.495834
37.81667	3.49847
37.83333	3.499056
37.85	3.497005
37.86667	3.495345
37.88333	3.499545
37.9	3.507064
37.91667	3.511068
37.93333	3.512435
37.95	3.515462
37.96667	3.516634
37.98333	3.513119
38	3.511849
38.01667	3.517904
38.03333	3.527279
38.05	3.533724
38.06667	3.536752
38.08333	3.535482
38.1	3.528451
38.11667	3.518002
38.13333	3.511752
38.15	3.511459
38.16667	3.513802
38.18333	3.521615
38.2	3.53558
38.21667	3.548666
38.23333	3.552377
38.25	3.54681
38.26667	3.539095
38.28333	3.535873
38.3	3.540462
38.31667	3.547689
38.33333	3.551107
38.35	3.552181
38.36667	3.555501
38.38333	3.561459
38.4	3.561166
38.41667	3.553744
38.43333	3.550912
38.45	3.562533
38.46667	3.582064
38.48333	3.589681
38.5	3.585287
38.51667	3.582943
38.53333	3.587142
38.55	3.589779
38.56667	3.588021
38.58333	3.585287
38.6	3.584213
38.61667	3.584994
38.63333	3.588802
38.65	3.59681
38.66667	3.608334
38.68333	3.618978
38.7	3.625423
38.71667	3.625033
38.73333	3.61849
38.75	3.613998
38.76667	3.620638
38.78333	3.634994
38.8	3.644173
38.81667	3.638998
38.83333	3.630404
38.85	3.627084
38.86667	3.630013
38.88333	3.631478
38.9	3.62933
38.91667	3.630208
38.93333	3.637826
38.95	3.647396
38.96667	3.647884
38.98333	3.637728
39	3.631478
39.01667	3.636361
39.03333	3.649447
39.05	3.659994
39.06667	3.665853
39.08333	3.668685
39.1	3.673275
39.11667	3.688509
39.13333	3.712826
39.15	3.737435
39.16667	3.752963
39.18333	3.765853
39.2	3.783236
39.21667	3.801107
39.23333	3.815853
39.25	3.83138
39.26667	3.854525
39.28333	3.882455
39.3	3.908724
39.31667	3.933627
39.33333	3.958041
39.35	3.975033
39.36667	3.984408
39.38333	3.998763
39.4	4.027767
39.41667	4.059896
39.43333	4.081869
39.45	4.097982
39.46667	4.121908
39.48333	4.158334
39.5	4.199447
39.51667	4.237533
39.53333	4.268099
39.55	4.296224
39.56667	4.327084
39.58333	4.360677
39.6	4.394955
39.61667	4.431185
39.63333	4.467416
39.65	4.497298
39.66667	4.524935
39.68333	4.56556
39.7	4.624056
39.71667	4.682552
39.73333	4.725131
39.75	4.755502
39.76667	4.787923
39.78333	4.825716
39.8	4.866927
39.81667	4.910384
39.83333	4.955404
39.85	4.998373
39.86667	5.037631
39.88333	5.076498
39.9	5.121224
39.91667	5.175326
39.93333	5.233334
39.95	5.284994
39.96667	5.327376
39.98333	5.364095
40	5.396517
40.01667	5.423959
40.03333	5.451303
40.05	5.485482
40.06667	5.52806
40.08333	5.573568
40.1	5.615462
40.11667	5.651791
40.13333	5.690658
40.15	5.733626
40.16667	5.777865
40.18333	5.824252
40.2	5.882748
40.21667	5.95472
40.23333	6.024154
40.25	6.077084
40.26667	6.113509
40.28333	6.149545
40.3	6.194759
40.31667	6.250228
40.33333	6.311947
40.35	6.370052
40.36667	6.414584
40.38333	6.445052
40.4	6.475814
40.41667	6.518783
40.43333	6.57347
40.45	6.630013
40.46667	6.678744
40.48333	6.716146
40.5	6.753158
40.51667	6.800814
40.53333	6.852767
40.55	6.892806
40.56667	6.920443
40.58333	6.960092
40.6	7.026986
40.61667	7.112924
40.63333	7.19476
40.65	7.25853
40.66667	7.307553
40.68333	7.347787
40.7	7.381381
40.71667	7.403647
40.73333	7.408725
40.75	7.396811
40.76667	7.37269
40.78333	7.344467
40.8	7.317026
40.81667	7.291733
40.83333	7.273862
40.85	7.265073
40.86667	7.259702
40.88333	7.247495
40.9	7.23519
40.91667	7.234604
40.93333	7.243002
40.95	7.250815
40.96667	7.256772
40.98333	7.266244
41	7.275717
41.01667	7.281577
41.03333	7.289291
41.05	7.304819
41.06667	7.323081
41.08333	7.334213
41.1	7.34017
41.11667	7.350522
41.13333	7.367514
41.15	7.384506
41.16667	7.399155
41.18333	7.409799
41.2	7.418686
41.21667	7.433432
41.23333	7.458237
41.25	7.486557
41.26667	7.504526
41.28333	7.513803
41.3	7.526792
41.31667	7.548862
41.33333	7.573373
41.35	7.588901
41.36667	7.599643
41.38333	7.613901
41.4	7.633334
41.41667	7.650327
41.43333	7.662631
41.45	7.684018
41.46667	7.712924
41.48333	7.734897
41.5	7.739487
41.51667	7.741538
41.53333	7.754721
41.55	7.779916
41.56667	7.806674
41.58333	7.828452
41.6	7.846128
41.61667	7.870053
41.63333	7.902182
41.65	7.930405
41.66667	7.944663
41.68333	7.947983
41.7	7.955893
41.71667	7.972983
41.73333	7.992709
41.75	8.00765
41.76667	8.023471
41.78333	8.045835
41.8	8.067514
41.81667	8.075424
41.83333	8.073568
41.85	8.076596
41.86667	8.090854
41.88333	8.110189
41.9	8.124155
41.91667	8.12855
41.93333	8.124643
41.95	8.122202
41.96667	8.126791
41.98333	8.137729
42	8.153745
42.01667	8.175913
42.03333	8.204916
42.05	8.229428
42.06667	8.235189
42.08333	8.228256
42.1	8.224154
42.11667	8.228647
42.13333	8.233042
42.15	8.238607
42.16667	8.249936
42.18333	8.26478
42.2	8.276205
42.21667	8.278842
42.23333	8.274838
42.25	8.272983
42.26667	8.282455
42.28333	8.299448
42.3	8.313705
42.31667	8.32103
42.33333	8.327085
42.35	8.333725
42.36667	8.336362
42.38333	8.339292
42.4	8.349838
42.41667	8.363022
42.43333	8.365561
42.45	8.358823
42.46667	8.352963
42.48333	8.351499
42.5	8.354917
42.51667	8.362826
42.53333	8.373276
42.55	8.382358
42.56667	8.390854
42.58333	8.400131
42.6	8.404819
42.61667	8.404721
42.63333	8.401889
42.65	8.400912
42.66667	8.40394
42.68333	8.409897
42.7	8.414584
42.71667	8.41478
42.73333	8.414487
42.75	8.416928
42.76667	8.421323
42.78333	8.423178
42.8	8.418783
42.81667	8.41019
42.83333	8.393686
42.85	8.367025
42.86667	8.334799
42.88333	8.308139
42.9	8.287534
42.91667	8.267123
42.93333	8.251987
42.95	8.251889
42.96667	8.268979
42.98333	8.297299
43	8.327377
43.01667	8.354233
43.03333	8.379038
43.05	8.402768
43.06667	8.416049
43.08333	8.413022
43.1	8.398569
43.11667	8.375424
43.13333	8.332456
43.15	8.254623
43.16667	8.141635
43.18333	8.00062
43.2	7.835288
43.21667	7.639096
43.23333	7.411362
43.25	7.166245
43.26667	6.920834
43.28333	6.678842
43.3	6.437631
43.31667	6.204232
43.33333	5.990756
43.35	5.798568
43.36667	5.619662
43.38333	5.446712
43.4	5.278451
43.41667	5.115658
43.43333	4.963802
43.45	4.823275
43.46667	4.688021
43.48333	4.550716
43.5	4.413021
43.51667	4.280697
43.53333	4.155697
43.55	4.03724
43.56667	3.921615
43.58333	3.805697
43.6	3.686459
43.61667	3.565463
43.63333	3.452181
43.65	3.35433
43.66667	3.270345
43.68333	3.187923
43.7	3.095834
43.71667	2.997982
43.73333	2.902767
43.75	2.815755
43.76667	2.732259
43.78333	2.649935
43.8	2.567806
43.81667	2.488412
43.83333	2.411458
43.85	2.334798
43.86667	2.258919
43.88333	2.184017
43.9	2.110091
43.91667	2.036849
43.93333	1.963607
43.95	1.893392
43.96667	1.831283
43.98333	1.779427
44	1.732748
44.01667	1.682357
44.03333	1.626205
44.05	1.569564
44.06667	1.516341
44.08333	1.463216
44.1	1.40765
44.11667	1.354525
44.13333	1.306381
44.15	1.262045
44.16667	1.222298
44.18333	1.191146
44.2	1.164974
44.21667	1.138314
44.23333	1.111849
44.25	1.084213
44.26667	1.051595
44.28333	1.01263
44.3	0.9752281
44.31667	0.9499351
44.33333	0.9395836
44.35	0.9339195
44.36667	0.9200523
44.38333	0.8978844
44.4	0.8765953
44.41667	0.8589195
44.43333	0.8369468
44.45	0.8098961
44.46667	0.7853844
44.48333	0.7691734
44.5	0.7557945
44.51667	0.7382164
44.53333	0.7155601
44.55	0.6973961
44.56667	0.6877281
44.58333	0.6799156
44.6	0.666732
44.61667	0.6469078
44.63333	0.6259117
44.65	0.6034508
44.66667	0.5776695
44.68333	0.5537437
44.7	0.5373375
44.71667	0.5224937
44.73333	0.4996422
44.75	0.4689781
44.76667	0.4416344
44.78333	0.4203453
44.8	0.4027672
44.81667	0.3804039
44.83333	0.3562828
44.85	0.3334312
44.86667	0.3126305
44.88333	0.2930016
44.9	0.2782555
44.91667	0.2723961
44.93333	0.2708336
44.95	0.2637047
44.96667	0.2473961
44.98333	0.2276695
45	0.2123375
45.01667	0.2029625
45.03333	0.1938805
45.05	0.1830406
45.06667	0.1715172
45.08333	0.1605797
45.1	0.1508141
45.11667	0.1402672
45.13333	0.1330406
45.15	0.1290367
45.16667	0.1231773
45.18333	0.110775
45.2	0.09368515
45.21667	0.08157577
45.23333	0.07698593
45.25	0.0757164
45.26667	0.07356796
45.28333	0.0710289
45.3	0.06780624
45.31667	0.05950546
45.33333	0.04837265
45.35	0.03860702
45.36667	0.03001327
45.38333	0.02268906
45.4	0.01956406
45.41667	0.02317734
45.43333	0.02932968
45.45	0.03274765
45.46667	0.02952499
45.48333	0.02190781
45.5	0.0147789
45.51667	0.007259369
45.53333	-0.003092194
45.55	-0.01158829
45.56667	-0.01090469
45.58333	-0.01129532
45.6	-0.02037735
45.61667	-0.03082657
45.63333	-0.03229141
45.65	-0.03151016
45.66667	-0.03610001
45.68333	-0.04078751
45.7	-0.03785782
45.71667	-0.03102188
45.73333	-0.0274086
45.75	-0.02985001
45.76667	-0.03639298
45.78333	-0.04078751
45.8	-0.04440079
45.81667	-0.05260391
45.83333	-0.06461563
45.85	-0.06998672
45.86667	-0.06158829
45.88333	-0.04869766
45.9	-0.04420548
45.91667	-0.0524086
45.93333	-0.06295548
45.95	-0.06529923
45.96667	-0.06412735
45.98333	-0.06969376
46	-0.07574844
46.01667	-0.07399063
46.03333	-0.06832657
46.05	-0.06725235
46.06667	-0.07018204
46.08333	-0.07291641
46.1	-0.07350235
46.11667	-0.07096329
46.13333	-0.06529923
46.15	-0.0617836
46.16667	-0.06510391
46.18333	-0.0720375
46.2	-0.07867813
46.21667	-0.08307266
46.23333	-0.08541641
46.25	-0.08668594
46.26667	-0.09166642
46.28333	-0.1022133
46.3	-0.1155922
46.31667	-0.123307
46.33333	-0.1181313
46.35	-0.09850235
46.36667	-0.07555313
46.38333	-0.0626625
46.4	-0.06979141
46.41667	-0.08395157
46.43333	-0.09068985
46.45	-0.09020157
46.46667	-0.09137344
46.48333	-0.09654923
46.5	-0.09537735
46.51667	-0.08531876
46.53333	-0.07574844
46.55	-0.07477188
46.56667	-0.08346329
46.58333	-0.09596328
46.6	-0.1044594
46.61667	-0.1039711
46.63333	-0.0937172
46.65	-0.08151016
46.66667	-0.07496719
46.68333	-0.07789688
46.7	-0.08492813
46.71667	-0.08688126
46.73333	-0.08190079
46.75	-0.07887344
46.76667	-0.08492813
46.78333	-0.0977211
46.8	-0.1130531
46.81667	-0.1243813
46.83333	-0.1286781
46.85	-0.1302406
46.86667	-0.1340492
46.88333	-0.1374672
46.9	-0.1365883
46.91667	-0.1337563
46.93333	-0.129557
46.95	-0.1211586
46.96667	-0.1130531
46.98333	-0.1137367
47	-0.1203773
47.01667	-0.1236977
47.03333	-0.1223305
47.05	-0.1220375
47.06667	-0.1247719
47.08333	-0.1280922
47.1	-0.1314125
47.11667	-0.1361
47.13333	-0.1407875
47.15	-0.1407875
47.16667	-0.1351234
47.18333	-0.129557
47.2	-0.1300453
47.21667	-0.1335609
47.23333	-0.1335609
47.25	-0.1272133
47.26667	-0.117643
47.28333	-0.1085609
47.3	-0.1056313
47.31667	-0.1117836
47.33333	-0.1234047
47.35	-0.1353188
47.36667	-0.1429359
47.38333	-0.1442055
47.4	-0.1378578
47.41667	-0.1244789
47.43333	-0.1119789
47.45	-0.1115883
47.46667	-0.1226234
47.48333	-0.1333656
47.5	-0.1348305
47.51667	-0.1260414
47.53333	-0.1128578
47.55	-0.1026039
47.56667	-0.1030922
47.58333	-0.1111977
47.6	-0.1180336
47.61667	-0.1213539
47.63333	-0.1228188
47.65	-0.1235024
47.66667	-0.1231117
47.68333	-0.1242836
47.7	-0.1275063
47.71667	-0.1278969
47.73333	-0.1229164
47.75	-0.1155922
47.76667	-0.1106117
47.78333	-0.1066078
47.8	-0.1050453
47.81667	-0.1054359
47.83333	-0.1064125
47.85	-0.1090492
47.86667	-0.1147133
47.88333	-0.1263344
47.9	-0.1394203
47.91667	-0.1461586
47.93333	-0.142057
47.95	-0.1294594
47.96667	-0.1182289
47.98333	-0.1168617
48	-0.1194984
48.01667	-0.1152992
48.03333	-0.1033852
48.05	-0.09586563
48.06667	-0.09899063
48.08333	-0.1105141
48.1	-0.1239906
48.11667	-0.1341469
48.13333	-0.1384438
48.15	-0.1382484
48.16667	-0.1364906
48.18333	-0.1365883
48.2	-0.1356117
48.21667	-0.130143
48.23333	-0.1224281
48.25	-0.1183266
48.26667	-0.1206703
48.28333	-0.1239906
48.3	-0.1237953
48.31667	-0.1210609
48.33333	-0.1181313
48.35	-0.117057
48.36667	-0.1213539
48.38333	-0.1344399
48.4	-0.1523109
48.41667	-0.164225
48.43333	-0.163932
48.45	-0.1532875
48.46667	-0.138932
48.48333	-0.130143
48.5	-0.1331703
48.51667	-0.1436195
48.53333	-0.1540688
48.55	-0.1591469
48.56667	-0.157975
48.58333	-0.1501625
48.6	-0.1382484
48.61667	-0.133268
48.63333	-0.1375649
48.65	-0.1436195
48.66667	-0.1452797
48.68333	-0.1413734
48.7	-0.1339516
48.71667	-0.1255531
48.73333	-0.1224281
48.75	-0.1261391
48.76667	-0.1306313
48.78333	-0.1324867
48.8	-0.1374672
48.81667	-0.1472328
48.83333	-0.152018
48.85	-0.1432289
48.86667	-0.1275063
48.88333	-0.1135414
48.9	-0.1097328
48.91667	-0.1160805
48.93333	-0.1262367
48.95	-0.1315102
48.96667	-0.1297524
48.98333	-0.1258461
49	-0.1235024
49.01667	-0.1235024
49.03333	-0.1259438
49.05	-0.1307289
49.06667	-0.1350258
49.08333	-0.1357094
49.1	-0.1350258
49.11667	-0.1375649
49.13333	-0.1408852
49.15	-0.1404945
49.16667	-0.1381508
49.18333	-0.1386391
49.2	-0.1440102
49.21667	-0.1519203
49.23333	-0.1568031
49.25	-0.1563148
49.26667	-0.1508461
49.28333	-0.1434242
49.3	-0.1378578
49.31667	-0.1362953
49.33333	-0.1387367
49.35	-0.1429359
49.36667	-0.1441078
49.38333	-0.1362953
49.4	-0.1259438
49.41667	-0.1251625
49.43333	-0.1379555
49.45	-0.1550453
49.46667	-0.1643227
49.48333	-0.1643227
49.5	-0.1568031
49.51667	-0.145182
49.53333	-0.1370766
49.55	-0.1348305
49.56667	-0.1383461
49.58333	-0.1467445
49.6	-0.151432
49.61667	-0.1442055
49.63333	-0.1349281
49.65	-0.1354164
49.66667	-0.1412758
49.68333	-0.1386391
49.7	-0.1252602
49.71667	-0.1132484
49.73333	-0.1103188
49.75	-0.1153969
49.76667	-0.1226234
49.78333	-0.1277992
49.8	-0.1289711
49.81667	-0.1266274
49.83333	-0.1265297
49.85	-0.1320961
49.86667	-0.1366859
49.88333	-0.1318031
49.9	-0.1208656
49.91667	-0.1148109
49.93333	-0.1181313
49.95	-0.1223305
49.96667	-0.1193031
49.98333	-0.1120766
50	-0.1109047
50.01667	-0.1205727
50.03333	-0.132682
50.05	-0.1354164
50.06667	-0.129557
50.08333	-0.1214516
50.1	-0.1169594
50.11667	-0.1155922
50.13333	-0.1147133
50.15	-0.1101234
50.16667	-0.1006508
50.18333	-0.09869766
50.2	-0.1114906
50.21667	-0.1306313
50.23333	-0.1438148
50.25	-0.1475258
50.26667	-0.1427406
50.28333	-0.1372719
50.3	-0.1384438
50.31667	-0.1465492
50.33333	-0.1526039
50.35	-0.1495766
50.36667	-0.1453774
50.38333	-0.142643
50.4	-0.1373695
50.41667	-0.1319984
50.43333	-0.1335609
50.45	-0.1422524
50.46667	-0.1539711
50.48333	-0.1652016
50.5	-0.1722328
50.51667	-0.1662758
50.53333	-0.1449867
50.55	-0.1200844
50.56667	-0.102018
50.58333	-0.09830704
50.6	-0.1088539
50.61667	-0.1230141
50.63333	-0.1293617
50.65	-0.1273109
50.66667	-0.1276039
50.68333	-0.1315102
50.7	-0.1342445
50.71667	-0.1368813
50.73333	-0.1437172
50.75	-0.1522133
50.76667	-0.1543617
50.78333	-0.1541664
50.8	-0.1581703
50.81667	-0.1658852
50.83333	-0.1695961
50.85	-0.1633461
50.86667	-0.1492836
50.88333	-0.1414711
50.9	-0.1500649
50.91667	-0.1686195
50.93333	-0.1814125
50.95	-0.1794594
50.96667	-0.167057
50.98333	-0.1537758
51	-0.1481117
51.01667	-0.1528969
51.03333	-0.1591469
51.05	-0.1628578
51.06667	-0.1649086
51.08333	-0.1688149
51.1	-0.1721352
51.11667	-0.1726234
51.13333	-0.1688149
51.15	-0.1581703
51.16667	-0.1421547
51.18333	-0.1340492
51.2	-0.1375649
51.21667	-0.1455727
51.23333	-0.1501625
51.25	-0.151432
51.26667	-0.1513344
51.28333	-0.1467445
51.3	-0.1399086
51.31667	-0.1364906
51.33333	-0.1433266
51.35	-0.1595375
51.36667	-0.1718422
51.38333	-0.1742836
51.4	-0.1706703
51.41667	-0.1647133
51.43333	-0.1602211
51.45	-0.1558266
51.46667	-0.151725
51.48333	-0.1475258
51.5	-0.1466469
51.51667	-0.1495766
51.53333	-0.1536781
51.55	-0.1566078
51.56667	-0.1601234
51.58333	-0.1615883
51.6	-0.1569984
51.61667	-0.1486977
51.63333	-0.1449867
51.65	-0.1450844
51.66667	-0.1422524
51.68333	-0.1377602
51.7	-0.139225
51.71667	-0.1476234
51.73333	-0.1539711
51.75	-0.1510414
51.76667	-0.1450844
51.78333	-0.1479164
51.8	-0.1599281
51.81667	-0.1718422
51.83333	-0.1784828
51.85	-0.1778969
51.86667	-0.1695961
51.88333	-0.1591469
51.9	-0.1557289
51.91667	-0.1607094
51.93333	-0.1649086
51.95	-0.1635414
51.96667	-0.1597328
51.98333	-0.1587563
52	-0.1612953
52.01667	-0.1653969
52.03333	-0.1675453
52.05	-0.1631508
52.06667	-0.1523109
52.08333	-0.1418617
52.1	-0.1378578
52.11667	-0.1396156
52.13333	-0.1460609
52.15	-0.1552406
52.16667	-0.1637367
52.18333	-0.1711586
52.2	-0.176725
52.21667	-0.1810219
52.23333	-0.185807
52.25	-0.1899086
52.26667	-0.185807
52.28333	-0.1725258
52.3	-0.1568031
52.31667	-0.1469398
52.33333	-0.1485023
52.35	-0.1541664
52.36667	-0.1559242
52.38333	-0.154557
52.4	-0.1577797
52.41667	-0.1671547
52.43333	-0.1708656
52.45	-0.1615883
52.46667	-0.1487953
52.48333	-0.1507484
52.5	-0.1666664
52.51667	-0.1816078
52.53333	-0.1837563
52.55	-0.1712563
52.56667	-0.1515297
52.58333	-0.1371742
52.6	-0.1350258
52.61667	-0.1422524
52.63333	-0.1537758
52.65	-0.1614906
52.66667	-0.161393
52.68333	-0.1558266
52.7	-0.1528969
52.71667	-0.1569984
52.73333	-0.1618813
52.75	-0.1601234
52.76667	-0.1529945
52.78333	-0.1441078
52.8	-0.1412758
52.81667	-0.1458656
52.83333	-0.1537758
52.85	-0.1569984
52.86667	-0.1554359
52.88333	-0.1538734
52.9	-0.1544594
52.91667	-0.1568031
52.93333	-0.1607094
52.95	-0.1636391
52.96667	-0.1634438
52.98333	-0.1611
53	-0.160807
53.01667	-0.1627602
53.03333	-0.1630531
53.05	-0.1590492
53.06667	-0.15485
53.08333	-0.1523109
53.1	-0.1486977
53.11667	-0.1444984
53.13333	-0.1428383
53.15	-0.1446938
53.16667	-0.1446938
53.18333	-0.1382484
53.2	-0.1309242
53.21667	-0.1324867
53.23333	-0.1401039
53.25	-0.142057
53.26667	-0.1359047
53.28333	-0.1310219
53.3	-0.1292641
53.31667	-0.1268227
53.33333	-0.1244789
53.35	-0.1250648
53.36667	-0.1274086
53.38333	-0.1282875
53.4	-0.127018
53.41667	-0.1243813
53.43333	-0.1254555
53.45	-0.1359047
53.46667	-0.15485
53.48333	-0.1706703
53.5	-0.1772133
53.51667	-0.1774086
53.53333	-0.1718422
53.55	-0.158268
53.56667	-0.1439125
53.58333	-0.14235
53.6	-0.1524086
53.61667	-0.1625648
53.63333	-0.1680336
53.65	-0.1698891
53.66667	-0.1652992
53.68333	-0.1524086
53.7	-0.1383461
53.71667	-0.1304359
53.73333	-0.1302406
53.75	-0.1373695
53.76667	-0.1453774
53.78333	-0.1464516
53.8	-0.1411781
53.81667	-0.1343422
53.83333	-0.1255531
53.85	-0.1177406
53.86667	-0.1199867
53.88333	-0.1334633
53.9	-0.1478188
53.91667	-0.1553383
53.93333	-0.1546547
53.95	-0.1496742
53.96667	-0.1459633
53.98333	-0.1492836
54	-0.1531899
54.01667	-0.1455727
54.03333	-0.130143
54.05	-0.1184242
54.06667	-0.1146156
54.08333	-0.1143227
54.1	-0.1143227
54.11667	-0.1149086
54.13333	-0.1212563
54.15	-0.1365883
54.16667	-0.1564125
54.18333	-0.1656899
54.2	-0.1593422
54.21667	-0.1459633
54.23333	-0.1378578
54.25	-0.1379555
54.26667	-0.1397133
54.28333	-0.1373695
54.3	-0.1316078
54.31667	-0.129557
54.33333	-0.1366859
54.35	-0.1468422
54.36667	-0.1495766
54.38333	-0.1461586
54.4	-0.1493813
54.41667	-0.1547523
54.43333	-0.1490883
54.45	-0.1354164
54.46667	-0.1269203
54.48333	-0.1279945
54.5	-0.1328773
54.51667	-0.1373695
54.53333	-0.1416664
54.55	-0.1448891
54.56667	-0.1453774
54.58333	-0.1444984
54.6	-0.1468422
54.61667	-0.1541664
54.63333	-0.1604164
54.65	-0.1637367
54.66667	-0.1649086
54.68333	-0.1630531
54.7	-0.1556313
54.71667	-0.14235
54.73333	-0.132682
54.75	-0.1318031
54.76667	-0.1367836
54.78333	-0.1387367
54.8	-0.1368813
54.81667	-0.1353188
54.83333	-0.1361977
54.85	-0.1355141
54.86667	-0.1334633
54.88333	-0.1330727
54.9	-0.1370766
54.91667	-0.1425453
54.93333	-0.1444984
54.95	-0.1408852
54.96667	-0.1361
54.98333	-0.1349281
55	-0.1372719
