"SampleName"	"3. PC-12 wt"
"System Name"	"Alliance 2"
"Sample Set Name"	"DTtV_15052025 GSL new HPLC"
"Date Acquired"	"5/15/2025 4:36:12 PM BST"
"Sample Set Start Date"	"5/15/2025 2:04:31 PM BST"
0	0.001280212
0.01666667	0.001932907
0.03333333	0.001483536
0.05	0.007733536
0.06666667	0.01954994
0.08333333	0.03283119
0.1	0.04357338
0.1166667	0.05626869
0.1333333	0.07374916
0.15	0.08800697
0.1666667	0.09210853
0.1833333	0.0883976
0.2	0.08156166
0.2166667	0.07365151
0.2333333	0.06974526
0.25	0.07453041
0.2666667	0.08400307
0.2833333	0.09191322
0.3	0.09640541
0.3166667	0.09767494
0.3333333	0.09689369
0.35	0.09601478
0.3666667	0.09474526
0.3833333	0.09367104
0.4	0.09328041
0.4166667	0.09181557
0.4333333	0.08761635
0.45	0.08439369
0.4666667	0.08624916
0.4833333	0.08966713
0.5	0.08517494
0.5166667	0.07394447
0.5333333	0.06720619
0.55	0.06583901
0.5666667	0.06290932
0.5833333	0.05568276
0.6	0.05109291
0.6166667	0.0524601
0.6333333	0.05548744
0.65	0.05734291
0.6666667	0.05939369
0.6833333	0.06046791
0.7	0.05831947
0.7166667	0.05343666
0.7333333	0.04816322
0.75	0.04367103
0.7666667	0.04142494
0.7833333	0.04279213
0.8	0.04484291
0.8166667	0.04454994
0.8333333	0.04406166
0.85	0.04454994
0.8666667	0.04367103
0.8833333	0.03781166
0.9	0.02999916
0.9166667	0.02804604
0.9333333	0.03341713
0.95	0.03497963
0.9666667	0.02619057
0.9833333	0.01408119
1	0.007538223
1.016667	0.008124161
1.033333	0.01193275
1.05	0.01915932
1.066667	0.03087807
1.083333	0.0399601
1.1	0.03605385
1.116667	0.02550697
1.133333	0.02492104
1.15	0.03419838
1.166667	0.03556557
1.183333	0.02443275
1.2	0.01720619
1.216667	0.02306557
1.233333	0.03605385
1.25	0.04747963
1.266667	0.05451088
1.283333	0.05275307
1.3	0.03849525
1.316667	0.01974525
1.333333	0.009100723
1.35	0.005389786
1.366667	0.00685463
1.383333	0.01701088
1.4	0.03703041
1.416667	0.05363197
1.433333	0.05529213
1.45	0.04064369
1.466667	0.02160072
1.483333	0.01085854
1.5	0.008514786
1.516667	0.007538223
1.533333	0.006952286
1.55	0.007440567
1.566667	0.008319473
1.583333	0.00841713
1.6	0.01144447
1.616667	0.02013588
1.633333	0.03029213
1.65	0.03546791
1.666667	0.0368351
1.683333	0.04406166
1.7	0.06242104
1.716667	0.09054603
1.733333	0.128046
1.75	0.1685734
1.766667	0.196796
1.783333	0.203046
1.8	0.1924992
1.816667	0.1812687
1.833333	0.1727726
1.85	0.1597843
1.866667	0.1384953
1.883333	0.1146671
1.9	0.09562416
1.916667	0.08224525
1.933333	0.07287025
1.95	0.07257728
1.966667	0.07843666
1.983333	0.0790226
2	0.0712101
2.016667	0.06408119
2.033333	0.06329994
2.05	0.06212807
2.066667	0.05470619
2.083333	0.0424015
2.1	0.02843666
2.116667	0.01564369
2.133333	0.003631973
2.15	-0.008575058
2.166667	-0.018536
2.183333	-0.02273521
2.2	-0.02117271
2.216667	-0.01912193
2.233333	-0.02068443
2.25	-0.027911
2.266667	-0.03699303
2.283333	-0.04529381
2.3	-0.05349693
2.316667	-0.05867271
2.333333	-0.05701256
2.35	-0.04841881
2.366667	-0.04470787
2.383333	-0.05261803
2.4	-0.06892662
2.416667	-0.08855553
2.433333	-0.1097469
2.45	-0.1283016
2.466667	-0.1420712
2.483333	-0.1510555
2.5	-0.162286
2.516667	-0.1764462
2.533333	-0.1888485
2.55	-0.1951962
2.566667	-0.1921688
2.583333	-0.1769344
2.6	-0.1555477
2.616667	-0.1386532
2.633333	-0.1289852
2.65	-0.1190243
2.666667	-0.09744225
2.683333	-0.06111412
2.7	-0.01052818
2.716667	0.05538978
2.733333	0.137421
2.75	0.2356632
2.766667	0.3476749
2.783333	0.4702335
2.8	0.5950382
2.816667	0.7169132
2.833333	0.8400577
2.85	0.9706241
2.866667	1.105878
2.883333	1.243183
2.9	1.384882
2.916667	1.529316
2.933333	1.671698
2.95	1.809687
2.966667	1.945429
2.983333	2.078925
3	2.210273
3.016667	2.350995
3.033333	2.51496
3.05	2.70871
3.066667	2.926386
3.083333	3.160468
3.1	3.404999
3.116667	3.649335
3.133333	3.876874
3.15	4.073652
3.166667	4.236933
3.183333	4.366914
3.2	4.469355
3.216667	4.566718
3.233333	4.699531
3.25	4.915156
3.266667	5.275996
3.283333	5.901777
3.3	6.995625
3.316667	8.754902
3.333333	11.19982
3.35	14.06027
3.366667	16.85783
3.383333	19.13811
3.4	20.64338
3.416667	21.35646
3.433333	21.53703
3.45	22.12326
3.466667	25.81389
3.483333	38.16291
3.5	66.4884
3.516667	115.3826
3.533333	182.1382
3.55	257.4472
3.566667	331.1303
3.583333	396.5169
3.6	449.6127
3.616667	486.2156
3.633333	501.7391
3.65	493.8546
3.666667	464.8619
3.683333	421.3487
3.7	371.5224
3.716667	322.3036
3.733333	277.8559
3.75	239.7518
3.766667	208.0151
3.783333	182.2588
3.8	162.3719
3.816667	148.6645
3.833333	141.6881
3.85	141.9145
3.866667	148.8256
3.883333	159.2247
3.9	166.9934
3.916667	166.1825
3.933333	154.4657
3.95	133.3946
3.966667	106.83
3.983333	79.85607
4	57.24963
4.016667	41.20891
4.033333	30.93029
4.05	24.4924
4.066667	20.37209
4.083333	17.60344
4.1	15.57111
4.116667	13.93322
4.133333	12.57365
4.15	11.48342
4.166667	10.65363
4.183333	10.04738
4.2	9.612127
4.216667	9.297381
4.233333	9.062616
4.25	8.874922
4.266667	8.708418
4.283333	8.550605
4.3	8.410175
4.316667	8.308906
4.333333	8.266913
4.35	8.294648
4.366667	8.395234
4.383333	8.563593
4.4	8.775801
4.416667	8.988008
4.433333	9.150995
4.45	9.222577
4.466667	9.172089
4.483333	8.989765
4.5	8.693769
4.516667	8.315156
4.533333	7.885175
4.55	7.432929
4.566667	6.984492
4.583333	6.551094
4.6	6.135859
4.616667	5.741523
4.633333	5.378438
4.65	5.063008
4.666667	4.821015
4.683333	4.679219
4.7	4.649531
4.716667	4.713203
4.733333	4.825019
4.75	4.929414
4.766667	4.982441
4.783333	4.965352
4.8	4.891816
4.816667	4.796992
4.833333	4.713203
4.85	4.654414
4.866667	4.613887
4.883333	4.57668
4.9	4.540449
4.916667	4.529706
4.933333	4.580488
4.95	4.705684
4.966667	4.884395
4.983333	5.073652
5	5.229121
5.016667	5.317988
5.033333	5.327656
5.05	5.274238
5.066667	5.197773
5.083333	5.138105
5.1	5.107636
5.116667	5.095039
5.133333	5.087324
5.15	5.077656
5.166667	5.050313
5.183333	4.985859
5.2	4.873555
5.216667	4.720625
5.233333	4.540351
5.25	4.344062
5.266667	4.144355
5.283333	3.951484
5.3	3.775312
5.316667	3.615546
5.333333	3.465644
5.35	3.324628
5.366667	3.202167
5.383333	3.10412
5.4	3.032636
5.416667	2.995429
5.433333	2.998652
5.45	3.03703
5.466667	3.095038
5.483333	3.155683
5.5	3.201483
5.516667	3.215351
5.533333	3.195527
5.55	3.157441
5.566667	3.131757
5.583333	3.142011
5.6	3.200605
5.616667	3.305292
5.633333	3.441327
5.65	3.57121
5.666667	3.651289
5.683333	3.66164
5.7	3.623359
5.716667	3.576581
5.733333	3.552167
5.75	3.563886
5.766667	3.619062
5.783333	3.720624
5.8	3.85539
5.816667	3.996113
5.833333	4.114081
5.85	4.20041
5.866667	4.253339
5.883333	4.270234
5.9	4.255
5.916667	4.211835
5.933333	4.143281
5.95	4.044257
5.966667	3.914277
5.983333	3.759199
6	3.589179
6.016667	3.414081
6.033333	3.24328
6.05	3.080976
6.066667	2.926191
6.083333	2.77746
6.1	2.643281
6.116667	2.535077
6.133333	2.456366
6.15	2.4008
6.166667	2.360858
6.183333	2.333319
6.2	2.313886
6.216667	2.296796
6.233333	2.27121
6.25	2.227167
6.266667	2.164472
6.283333	2.092695
6.3	2.023944
6.316667	1.96828
6.333333	1.929023
6.35	1.902948
6.366667	1.879902
6.383333	1.848066
6.4	1.80373
6.416667	1.758319
6.433333	1.730292
6.45	1.723554
6.466667	1.725116
6.483333	1.727362
6.5	1.736249
6.516667	1.755487
6.533333	1.779608
6.55	1.801581
6.566667	1.814862
6.583333	1.820526
6.6	1.824335
6.616667	1.824433
6.633333	1.81164
6.65	1.782734
6.666667	1.744843
6.683333	1.706366
6.7	1.666718
6.716667	1.623066
6.733333	1.576386
6.75	1.528925
6.766667	1.48039
6.783333	1.429901
6.8	1.37746
6.816667	1.330194
6.833333	1.301874
6.85	1.298359
6.866667	1.3133
6.883333	1.338495
6.9	1.375116
6.916667	1.429706
6.933333	1.498358
6.95	1.571796
6.966667	1.640839
6.983333	1.696991
7	1.731855
7.016667	1.743573
7.033333	1.733027
7.05	1.705194
7.066667	1.66496
7.083333	1.621503
7.1	1.58078
7.116667	1.544257
7.133333	1.510761
7.15	1.484003
7.166667	1.466913
7.183333	1.457734
7.2	1.44953
7.216667	1.437323
7.233333	1.421308
7.25	1.403534
7.266667	1.387421
7.283333	1.373066
7.3	1.359882
7.316667	1.351679
7.333333	1.356171
7.35	1.380097
7.366667	1.424921
7.383333	1.486249
7.4	1.555487
7.416667	1.626679
7.433333	1.701386
7.45	1.770234
7.466667	1.81203
7.483333	1.813007
7.5	1.778632
7.516667	1.721894
7.533333	1.651288
7.55	1.572187
7.566667	1.492109
7.583333	1.417792
7.6	1.347577
7.616667	1.276874
7.633333	1.20705
7.65	1.148359
7.666667	1.11164
7.683333	1.096015
7.7	1.088202
7.716667	1.072187
7.733333	1.047773
7.75	1.027753
7.766667	1.023554
7.783333	1.035273
7.8	1.050605
7.816667	1.057636
7.833333	1.056269
7.85	1.054316
7.866667	1.056562
7.883333	1.061542
7.9	1.068769
7.916667	1.07873
7.933333	1.085663
7.95	1.088984
7.966667	1.091523
7.983333	1.097675
8	1.106464
8.016667	1.112128
8.033333	1.113202
8.05	1.118769
8.066667	1.137128
8.083333	1.169648
8.1	1.204511
8.116667	1.233222
8.133333	1.257734
8.15	1.285859
8.166667	1.328046
8.183333	1.389667
8.2	1.464569
8.216667	1.547968
8.233333	1.642694
8.25	1.748652
8.266667	1.857929
8.283333	1.96164
8.3	2.057441
8.316667	2.135761
8.333333	2.17873
8.35	2.179023
8.366667	2.146503
8.383333	2.089277
8.4	2.008515
8.416667	1.906562
8.433333	1.796796
8.45	1.690058
8.466667	1.589765
8.483333	1.497284
8.5	1.41164
8.516667	1.33078
8.533333	1.252558
8.55	1.178925
8.566667	1.114862
8.583333	1.064765
8.6	1.031269
8.616667	1.009687
8.633333	0.9931828
8.65	0.9759952
8.666667	0.9585148
8.683333	0.9422062
8.7	0.9339054
8.716667	0.9324406
8.733333	0.930878
8.75	0.9258
8.766667	0.9211124
8.783333	0.9212101
8.8	0.9238468
8.816667	0.9256046
8.833333	0.9275578
8.85	0.9343937
8.866667	0.9504093
8.883333	0.9688663
8.9	0.9829289
8.916667	0.9918156
8.933333	0.9986515
8.95	1.012616
8.966667	1.033612
8.983333	1.056464
9	1.085077
9.016667	1.130292
9.033333	1.190937
9.05	1.253046
9.066667	1.317694
9.083333	1.398163
9.1	1.498163
9.116667	1.607538
9.133333	1.717011
9.15	1.822284
9.166667	1.92248
9.183333	2.010468
9.2	2.067694
9.216667	2.077851
9.233333	2.044452
9.25	1.985273
9.266667	1.912909
9.283333	1.832538
9.3	1.741327
9.316667	1.638202
9.333333	1.531073
9.35	1.42912
9.366667	1.333905
9.383333	1.244648
9.4	1.165839
9.416667	1.097284
9.433333	1.031659
9.45	0.9672062
9.466667	0.9109562
9.483333	0.8673038
9.5	0.8327335
9.516667	0.8017765
9.533333	0.7757999
9.55	0.7563664
9.566667	0.7415226
9.583333	0.7272648
9.6	0.715546
9.616667	0.7104679
9.633333	0.7116398
9.65	0.7124211
9.666667	0.7093937
9.683333	0.7066593
9.7	0.7102726
9.716667	0.7198429
9.733333	0.7287296
9.75	0.7358586
9.766667	0.7488468
9.783333	0.7711124
9.8	0.8032414
9.816667	0.8435734
9.833333	0.8915226
9.85	0.9370304
9.866667	0.9718937
9.883333	0.9992374
9.9	1.026679
9.916667	1.051093
9.933333	1.060175
9.95	1.053632
9.966667	1.036835
9.983333	1.009296
10	0.9667179
10.01667	0.913007
10.03333	0.8553898
10.05	0.797382
10.06667	0.7426945
10.08333	0.6935734
10.1	0.643964
10.11667	0.5924991
10.13333	0.5480655
10.15	0.5159367
10.16667	0.4891788
10.18333	0.4608585
10.2	0.4339054
10.21667	0.4173039
10.23333	0.4168156
10.25	0.4291202
10.26667	0.4363468
10.28333	0.424921
10.3	0.4034367
10.31667	0.391425
10.33333	0.3933781
10.35	0.3966984
10.36667	0.3950382
10.38333	0.3910343
10.4	0.3890812
10.41667	0.3888859
10.43333	0.3887882
10.45	0.3892765
10.46667	0.3892765
10.48333	0.3843937
10.5	0.3771671
10.51667	0.3705265
10.53333	0.3637882
10.55	0.3576359
10.56667	0.3582218
10.58333	0.3684757
10.6	0.3801945
10.61667	0.3830265
10.63333	0.3726749
10.65	0.3545109
10.66667	0.3437687
10.68333	0.3466007
10.7	0.3579288
10.71667	0.3706242
10.73333	0.3774601
10.75	0.3757023
10.76667	0.3657413
10.78333	0.3541203
10.8	0.3447452
10.81667	0.3361515
10.83333	0.3276554
10.85	0.322089
10.86667	0.3221866
10.88333	0.3279484
10.9	0.3397648
10.91667	0.3563663
10.93333	0.3687687
10.95	0.365839
10.96667	0.3506046
10.98333	0.3361515
11	0.3320499
11.01667	0.3371281
11.03333	0.3431827
11.05	0.3465031
11.06667	0.3448429
11.08333	0.340839
11.1	0.3415226
11.11667	0.3491398
11.13333	0.3549992
11.15	0.3511906
11.16667	0.3423038
11.18333	0.337421
11.2	0.3370304
11.21667	0.3368351
11.23333	0.337421
11.25	0.3394718
11.26667	0.3434757
11.28333	0.3485538
11.3	0.356171
11.31667	0.3632999
11.33333	0.3634953
11.35	0.3579288
11.36667	0.3550968
11.38333	0.3582218
11.4	0.3623234
11.41667	0.3643742
11.43333	0.3663273
11.45	0.3684757
11.46667	0.3674992
11.48333	0.363007
11.5	0.3591984
11.51667	0.3579288
11.53333	0.3594913
11.55	0.362714
11.56667	0.3693546
11.58333	0.3806828
11.6	0.3932804
11.61667	0.4001164
11.63333	0.4016789
11.65	0.4099796
11.66667	0.422675
11.68333	0.434296
11.7	0.4480656
11.71667	0.4700382
11.73333	0.4951359
11.75	0.5132023
11.76667	0.5245304
11.78333	0.5398625
11.8	0.5653507
11.81667	0.5984562
11.83333	0.6352726
11.85	0.6761906
11.86667	0.7171085
11.88333	0.7503117
11.9	0.7684757
11.91667	0.7757999
11.93333	0.7801945
11.95	0.781464
11.96667	0.7799991
11.98333	0.7831241
12	0.7916203
12.01667	0.7977726
12.03333	0.794257
12.05	0.7836124
12.06667	0.7734562
12.08333	0.7670109
12.1	0.7609562
12.11667	0.7507023
12.13333	0.7308781
12.15	0.7071476
12.16667	0.6859562
12.18333	0.6712101
12.2	0.6563663
12.21667	0.6387882
12.23333	0.6248234
12.25	0.6182804
12.26667	0.6156437
12.28333	0.6133976
12.3	0.6150578
12.31667	0.6188663
12.33333	0.6174992
12.35	0.6090031
12.36667	0.6003116
12.38333	0.5955265
12.4	0.596796
12.41667	0.6044132
12.43333	0.6170109
12.45	0.6264836
12.46667	0.6259953
12.48333	0.6133
12.5	0.5968937
12.51667	0.5898625
12.53333	0.5948429
12.55	0.6023625
12.56667	0.6019718
12.58333	0.5957218
12.6	0.5913273
12.61667	0.5915226
12.63333	0.5934757
12.65	0.5944523
12.66667	0.591132
12.68333	0.5802921
12.7	0.5681828
12.71667	0.5644718
12.73333	0.5696476
12.75	0.5779484
12.76667	0.5860538
12.78333	0.5947453
12.8	0.5990421
12.81667	0.5977726
12.83333	0.5948429
12.85	0.5937687
12.86667	0.5928898
12.88333	0.5940617
12.9	0.5986515
12.91667	0.6020695
12.93333	0.6003116
12.95	0.5987492
12.96667	0.6023625
12.98333	0.6066593
13	0.6072453
13.01667	0.6106632
13.03333	0.622382
13.05	0.6341007
13.06667	0.6398624
13.08333	0.6435734
13.1	0.6514835
13.11667	0.6632023
13.13333	0.6741398
13.15	0.6883976
13.16667	0.7069523
13.18333	0.721796
13.2	0.7327335
13.21667	0.7503117
13.23333	0.7818546
13.25	0.8258976
13.26667	0.8741398
13.28333	0.9174992
13.3	0.9504093
13.31667	0.9736515
13.33333	0.9938663
13.35	1.015253
13.36667	1.038202
13.38333	1.054804
13.4	1.062909
13.41667	1.065937
13.43333	1.065351
13.45	1.056659
13.46667	1.04123
13.48333	1.031464
13.5	1.026777
13.51667	1.018573
13.53333	1.005097
13.55	0.9891788
13.56667	0.9703312
13.58333	0.9498234
13.6	0.9378117
13.61667	0.9386905
13.63333	0.9425968
13.65	0.9415226
13.66667	0.9410343
13.68333	0.9493351
13.7	0.9639835
13.71667	0.9742374
13.73333	0.9736515
13.75	0.9682804
13.76667	0.9631046
13.78333	0.9567569
13.8	0.9412296
13.81667	0.9174015
13.83333	0.8924991
13.85	0.8769718
13.86667	0.8739445
13.88333	0.8767765
13.9	0.8747257
13.91667	0.8619328
13.93333	0.8448429
13.95	0.8339054
13.96667	0.8344914
13.98333	0.8466007
14	0.8729679
14.01667	0.9165226
14.03333	0.9773625
14.05	1.049237
14.06667	1.136152
14.08333	1.247089
14.1	1.384296
14.11667	1.545527
14.13333	1.736249
14.15	1.962226
14.16667	2.216815
14.18333	2.490546
14.2	2.780195
14.21667	3.081269
14.23333	3.375409
14.25	3.642207
14.26667	3.875507
14.28333	4.073066
14.3	4.227558
14.31667	4.331758
14.33333	4.388593
14.35	4.403535
14.36667	4.372578
14.38333	4.292109
14.4	4.167792
14.41667	4.012422
14.43333	3.834296
14.45	3.634687
14.46667	3.419745
14.48333	3.202167
14.5	2.993183
14.51667	2.793866
14.53333	2.605292
14.55	2.431855
14.56667	2.272187
14.58333	2.120331
14.6	1.976581
14.61667	1.849433
14.63333	1.745234
14.65	1.655487
14.66667	1.565937
14.68333	1.47746
14.7	1.401972
14.71667	1.344648
14.73333	1.296991
14.75	1.251191
14.76667	1.209394
14.78333	1.172968
14.8	1.139862
14.81667	1.109491
14.83333	1.081659
14.85	1.057734
14.86667	1.040937
14.88333	1.027655
14.9	1.013007
14.91667	0.9955265
14.93333	0.9791203
14.95	0.9654484
14.96667	0.9456242
14.98333	0.9205265
15	0.9034367
15.01667	0.9050968
15.03333	0.9179875
15.05	0.9258
15.06667	0.9207218
15.08333	0.9043156
15.1	0.887421
15.11667	0.8816593
15.13333	0.8887882
15.15	0.9007999
15.16667	0.9073429
15.18333	0.9023625
15.2	0.8954288
15.21667	0.8985538
15.23333	0.9117374
15.25	0.9225773
15.26667	0.9245304
15.28333	0.9197453
15.3	0.9132999
15.31667	0.9068546
15.33333	0.9010929
15.35	0.8956242
15.36667	0.8888859
15.38333	0.8846866
15.4	0.8898624
15.41667	0.9049991
15.43333	0.9194523
15.45	0.924921
15.46667	0.9224796
15.48333	0.9174992
15.5	0.9133976
15.51667	0.9106632
15.53333	0.913007
15.55	0.9213077
15.56667	0.9337101
15.58333	0.9452335
15.6	0.9549015
15.61667	0.9614445
15.63333	0.9674015
15.65	0.9722843
15.66667	0.9721867
15.68333	0.9675968
15.7	0.9622257
15.71667	0.9582218
15.73333	0.9573429
15.75	0.962714
15.76667	0.9731632
15.78333	0.9807804
15.8	0.978632
15.81667	0.9677922
15.83333	0.953925
15.85	0.9435734
15.86667	0.9435734
15.88333	0.9515812
15.9	0.9629093
15.91667	0.9737492
15.93333	0.9791203
15.95	0.9794132
15.96667	0.9805851
15.98333	0.9843937
16	0.9875187
16.01667	0.987421
16.03333	0.9878117
16.05	0.9909366
16.06667	0.9966984
16.08333	1.008612
16.1	1.029511
16.11667	1.059198
16.13333	1.097089
16.15	1.148651
16.16667	1.220136
16.18333	1.316523
16.2	1.441425
16.21667	1.598944
16.23333	1.798749
16.25	2.049042
16.26667	2.3508
16.28333	2.699823
16.3	3.091815
16.31667	3.527851
16.33333	4.002656
16.35	4.502265
16.36667	5.007442
16.38333	5.499629
16.4	5.968867
16.41667	6.411836
16.43333	6.815156
16.45	7.153144
16.46667	7.409394
16.48333	7.586835
16.5	7.693086
16.51667	7.733125
16.53333	7.725019
16.55	7.6925
16.56667	7.653047
16.58333	7.61623
16.6	7.591816
16.61667	7.595234
16.63333	7.64289
16.65	7.742793
16.66667	7.895039
16.68333	8.091913
16.7	8.319941
16.71667	8.554414
16.73333	8.767206
16.75	8.938398
16.76667	9.059687
16.78333	9.127168
16.8	9.135077
16.81667	9.078241
16.83333	8.952851
16.85	8.76457
16.86667	8.533125
16.88333	8.28498
16.9	8.038886
16.91667	7.802363
16.93333	7.582929
16.95	7.390254
16.96667	7.227265
16.98333	7.088008
17	6.962911
17.01667	6.840352
17.03333	6.709395
17.05	6.561543
17.06667	6.39709
17.08333	6.217109
17.1	6.015645
17.11667	5.782344
17.13333	5.512324
17.15	5.216133
17.16667	4.913008
17.18333	4.61457
17.2	4.319746
17.21667	4.025214
17.23333	3.736738
17.25	3.467108
17.26667	3.22248
17.28333	2.997675
17.3	2.790253
17.31667	2.601679
17.33333	2.436445
17.35	2.291523
17.36667	2.162616
17.38333	2.044648
17.4	1.939276
17.41667	1.852753
17.43333	1.783612
17.45	1.721503
17.46667	1.657245
17.48333	1.59455
17.5	1.537812
17.51667	1.491425
17.53333	1.456269
17.55	1.42912
17.56667	1.40373
17.58333	1.377362
17.6	1.351288
17.61667	1.325898
17.63333	1.303534
17.65	1.292109
17.66667	1.290155
17.68333	1.290448
17.7	1.29328
17.71667	1.301679
17.73333	1.313007
17.75	1.323847
17.76667	1.339472
17.78333	1.368183
17.8	1.410761
17.81667	1.460956
17.83333	1.516327
17.85	1.579413
17.86667	1.652558
17.88333	1.733417
17.9	1.818671
17.91667	1.904999
17.93333	1.988495
17.95	2.063886
17.96667	2.126776
17.98333	2.175507
18	2.20998
18.01667	2.232538
18.03333	2.24123
18.05	2.227069
18.06667	2.191034
18.08333	2.140058
18.1	2.085077
18.11667	2.033026
18.13333	1.981952
18.15	1.927362
18.16667	1.868769
18.18333	1.81203
18.2	1.764277
18.21667	1.725116
18.23333	1.687616
18.25	1.648163
18.26667	1.610956
18.28333	1.581366
18.3	1.554804
18.31667	1.527265
18.33333	1.503437
18.35	1.490937
18.36667	1.4883
18.38333	1.489765
18.4	1.489472
18.41667	1.483124
18.43333	1.469452
18.45	1.452753
18.46667	1.441913
18.48333	1.441913
18.5	1.451386
18.51667	1.467304
18.53333	1.489472
18.55	1.516816
18.56667	1.544062
18.58333	1.564179
18.6	1.577558
18.61667	1.589081
18.63333	1.606171
18.65	1.627167
18.66667	1.644843
18.68333	1.658417
18.7	1.667109
18.71667	1.672577
18.73333	1.675116
18.75	1.671991
18.76667	1.659101
18.78333	1.640937
18.8	1.626288
18.81667	1.613788
18.83333	1.597577
18.85	1.576191
18.86667	1.555683
18.88333	1.540546
18.9	1.530976
18.91667	1.524237
18.93333	1.514081
18.95	1.496894
18.96667	1.477655
18.98333	1.46828
19	1.468573
19.01667	1.470429
19.03333	1.464765
19.05	1.454901
19.06667	1.449237
19.08333	1.447968
19.1	1.447968
19.11667	1.446015
19.13333	1.443476
19.15	1.43996
19.16667	1.44123
19.18333	1.450409
19.2	1.456269
19.21667	1.448359
19.23333	1.430976
19.25	1.421503
19.26667	1.428144
19.28333	1.444062
19.3	1.455487
19.31667	1.454023
19.33333	1.442694
19.35	1.42912
19.36667	1.420722
19.38333	1.420722
19.4	1.428339
19.41667	1.437226
19.43333	1.44123
19.45	1.43703
19.46667	1.427753
19.48333	1.42248
19.5	1.427558
19.51667	1.441132
19.53333	1.455292
19.55	1.463398
19.56667	1.470038
19.58333	1.47912
19.6	1.491913
19.61667	1.506952
19.63333	1.526288
19.65	1.549628
19.66667	1.571015
19.68333	1.588886
19.7	1.604511
19.71667	1.619355
19.73333	1.628534
19.75	1.633612
19.76667	1.641425
19.78333	1.658124
19.8	1.681366
19.81667	1.703632
19.83333	1.719062
19.85	1.73332
19.86667	1.758417
19.88333	1.795038
19.9	1.836151
19.91667	1.876191
19.93333	1.913788
19.95	1.951679
19.96667	1.989862
19.98333	2.026581
20	2.058905
20.01667	2.085566
20.03333	2.108027
20.05	2.133027
20.06667	2.158515
20.08333	2.174335
20.1	2.173944
20.11667	2.160761
20.13333	2.141718
20.15	2.119941
20.16667	2.093964
20.18333	2.065546
20.2	2.03996
20.21667	2.014277
20.23333	1.983612
20.25	1.948359
20.26667	1.920624
20.28333	1.910175
20.3	1.908124
20.31667	1.899335
20.33333	1.882636
20.35	1.869257
20.36667	1.866327
20.38333	1.864765
20.4	1.859394
20.41667	1.857343
20.43333	1.862909
20.45	1.86828
20.46667	1.864569
20.48333	1.855487
20.5	1.850019
20.51667	1.848749
20.53333	1.849335
20.55	1.853534
20.56667	1.865058
20.58333	1.885175
20.6	1.913593
20.61667	1.956562
20.63333	2.027851
20.65	2.136933
20.66667	2.286542
20.68333	2.475605
20.7	2.702363
20.71667	2.967402
20.73333	3.275409
20.75	3.624043
20.76667	4.000215
20.78333	4.393964
20.8	4.79914
20.81667	5.206269
20.83333	5.597383
20.85	5.954512
20.86667	6.262422
20.88333	6.506172
20.9	6.677363
20.91667	6.779902
20.93333	6.82043
20.95	6.801387
20.96667	6.729219
20.98333	6.620234
21	6.492403
21.01667	6.361054
21.03333	6.239277
21.05	6.145234
21.06667	6.099336
21.08333	6.113203
21.1	6.191524
21.11667	6.329121
21.13333	6.513789
21.15	6.733223
21.16667	6.977168
21.18333	7.232245
21.2	7.479902
21.21667	7.700898
21.23333	7.882636
21.25	8.018378
21.26667	8.104511
21.28333	8.129316
21.3	8.080194
21.31667	7.960371
21.33333	7.791816
21.35	7.597089
21.36667	7.387128
21.38333	7.164277
21.4	6.933321
21.41667	6.706367
21.43333	6.498848
21.45	6.312129
21.46667	6.133515
21.48333	5.956172
21.5	5.788594
21.51667	5.638691
21.53333	5.496113
21.55	5.346699
21.56667	5.187422
21.58333	5.02707
21.6	4.866914
21.61667	4.698066
21.63333	4.514179
21.65	4.317109
21.66667	4.116328
21.68333	3.922578
21.7	3.745136
21.71667	3.588984
21.73333	3.44621
21.75	3.31037
21.76667	3.184101
21.78333	3.072968
21.8	2.972675
21.81667	2.873847
21.83333	2.777753
21.85	2.695527
21.86667	2.627851
21.88333	2.563007
21.9	2.492011
21.91667	2.422284
21.93333	2.363886
21.95	2.317694
21.96667	2.278925
21.98333	2.240448
22	2.197284
22.01667	2.148359
22.03333	2.102753
22.05	2.070429
22.06667	2.048944
22.08333	2.029706
22.1	2.010273
22.11667	1.996503
22.13333	1.991034
22.15	1.991913
22.16667	1.995234
22.18333	2.002948
22.2	2.019355
22.21667	2.044648
22.23333	2.07746
22.25	2.118378
22.26667	2.165058
22.28333	2.211152
22.3	2.254901
22.31667	2.3008
22.33333	2.345722
22.35	2.382343
22.36667	2.412421
22.38333	2.445331
22.4	2.482538
22.41667	2.513202
22.43333	2.530097
22.45	2.538202
22.46667	2.544648
22.48333	2.542402
22.5	2.517401
22.51667	2.47414
22.53333	2.430976
22.55	2.4008
22.56667	2.371601
22.58333	2.32746
22.6	2.274921
22.61667	2.232831
22.63333	2.207636
22.65	2.186542
22.66667	2.164179
22.68333	2.143866
22.7	2.136152
22.71667	2.137616
22.73333	2.136933
22.75	2.129999
22.76667	2.125312
22.78333	2.135077
22.8	2.162519
22.81667	2.20373
22.83333	2.257441
22.85	2.32414
22.86667	2.401093
22.88333	2.484589
22.9	2.576581
22.91667	2.68537
22.93333	2.824726
22.95	3.005976
22.96667	3.232538
22.98333	3.512226
23	3.868281
23.01667	4.336152
23.03333	4.950019
23.05	5.736348
23.06667	6.719356
23.08333	7.916327
23.1	9.325507
23.11667	10.92775
23.13333	12.68947
23.15	14.57072
23.16667	16.52522
23.18333	18.48869
23.2	20.38332
23.21667	22.13069
23.23333	23.66096
23.25	24.90149
23.26667	25.78869
23.28333	26.29953
23.3	26.44572
23.31667	26.23615
23.33333	25.68557
23.35	24.83684
23.36667	23.7594
23.38333	22.51496
23.4	21.15656
23.41667	19.73645
23.43333	18.29816
23.45	16.87736
23.46667	15.5052
23.48333	14.20871
23.5	13.00461
23.51667	11.89182
23.53333	10.86945
23.55	9.939569
23.56667	9.101092
23.58333	8.341328
23.6	7.646894
23.61667	7.018281
23.63333	6.453731
23.65	5.945234
23.66667	5.486054
23.68333	5.076875
23.7	4.72248
23.71667	4.420527
23.73333	4.165254
23.75	3.951386
23.76667	3.767109
23.78333	3.603632
23.8	3.465351
23.81667	3.367792
23.83333	3.314276
23.85	3.289862
23.86667	3.279706
23.88333	3.282636
23.9	3.301874
23.91667	3.337519
23.93333	3.383124
23.95	3.427167
23.96667	3.459882
23.98333	3.480585
24	3.49914
24.01667	3.518183
24.03333	3.529999
24.05	3.524628
24.06667	3.503144
24.08333	3.469452
24.1	3.42912
24.11667	3.388105
24.13333	3.350409
24.15	3.318866
24.16667	3.296113
24.18333	3.279511
24.2	3.266718
24.21667	3.260175
24.23333	3.268085
24.25	3.294648
24.26667	3.333905
24.28333	3.379804
24.3	3.436152
24.31667	3.509296
24.33333	3.594843
24.35	3.679414
24.36667	3.760078
24.38333	3.840351
24.4	3.912226
24.41667	3.961738
24.43333	3.987128
24.45	3.999921
24.46667	3.998749
24.48333	3.976191
24.5	3.938789
24.51667	3.901093
24.53333	3.874336
24.55	3.861249
24.56667	3.875214
24.58333	3.931757
24.6	4.052656
24.61667	4.27248
24.63333	4.632148
24.65	5.159004
24.66667	5.872871
24.68333	6.814766
24.7	8.0425
24.71667	9.594061
24.73333	11.48371
24.75	13.72394
24.76667	16.31594
24.78333	19.21594
24.8	22.33567
24.81667	25.57551
24.83333	28.84104
24.85	32.01858
24.86667	34.9677
24.88333	37.56125
24.9	39.70783
24.91667	41.33781
24.93333	42.38694
24.95	42.82981
24.96667	42.6842
24.98333	41.9882
25	40.79358
25.01667	39.18352
25.03333	37.2634
25.05	35.12405
25.06667	32.85139
25.08333	30.52531
25.1	28.20823
25.11667	25.93977
25.13333	23.75813
25.15	21.70178
25.16667	19.78889
25.18333	18.01613
25.2	16.38029
25.21667	14.88
25.23333	13.509
25.25	12.26291
25.26667	11.13957
25.28333	10.13644
25.3	9.23996
25.31667	8.432734
25.33333	7.704511
25.35	7.052168
25.36667	6.465938
25.38333	5.939765
25.4	5.480391
25.41667	5.092207
25.43333	4.763008
25.45	4.473945
25.46667	4.220527
25.48333	4.007246
25.5	3.838984
25.51667	3.712226
25.53333	3.621406
25.55	3.560468
25.56667	3.530195
25.58333	3.538495
25.6	3.590839
25.61667	3.683906
25.63333	3.805
25.65	3.942988
25.66667	4.094062
25.68333	4.257148
25.7	4.431074
25.71667	4.612031
25.73333	4.78957
25.75	4.949141
25.76667	5.084004
25.78333	5.196992
25.8	5.291914
25.81667	5.373457
25.83333	5.441524
25.85	5.490352
25.86667	5.51418
25.88333	5.518867
25.9	5.514082
25.91667	5.502168
25.93333	5.483125
25.95	5.461055
25.96667	5.432637
25.98333	5.393672
26	5.341035
26.01667	5.277168
26.03333	5.20539
26.05	5.128535
26.06667	5.046016
26.08333	4.951777
26.1	4.844453
26.11667	4.725019
26.13333	4.594258
26.15	4.460957
26.16667	4.334199
26.18333	4.20998
26.2	4.07834
26.21667	3.940742
26.23333	3.811836
26.25	3.701386
26.26667	3.605488
26.28333	3.510566
26.3	3.408319
26.31667	3.304804
26.33333	3.218671
26.35	3.166816
26.36667	3.154999
26.38333	3.18371
26.4	3.254706
26.41667	3.376093
26.43333	3.563105
26.45	3.843379
26.46667	4.250996
26.48333	4.811836
26.5	5.544941
26.51667	6.461445
26.53333	7.571504
26.55	8.886738
26.56667	10.41945
26.58333	12.159
26.6	14.05285
26.61667	16.03508
26.63333	18.04904
26.65	20.02902
26.66667	21.88791
26.68333	23.54123
26.7	24.92912
26.71667	26.01213
26.73333	26.75402
26.75	27.13078
26.76667	27.14074
26.78333	26.79934
26.8	26.14133
26.81667	25.21672
26.83333	24.08342
26.85	22.79387
26.86667	21.39104
26.88333	19.92297
26.9	18.44514
26.91667	17.00793
26.93333	15.63547
26.95	14.3341
26.96667	13.11506
26.98333	11.98957
27	10.95861
27.01667	10.01223
27.03333	9.145429
27.05	8.361152
27.06667	7.659492
27.08333	7.036446
27.1	6.484102
27.11667	5.99709
27.13333	5.569453
27.15	5.191914
27.16667	4.858906
27.18333	4.574531
27.2	4.348945
27.21667	4.185273
27.23333	4.075507
27.25	4.01291
27.26667	4.000703
27.28333	4.048261
27.3	4.160273
27.31667	4.334003
27.33333	4.564179
27.35	4.847285
27.36667	5.182832
27.38333	5.568477
27.4	5.997676
27.41667	6.462226
27.43333	6.948067
27.45	7.433906
27.46667	7.896015
27.48333	8.310566
27.5	8.663886
27.51667	8.950019
27.53333	9.165742
27.55	9.30451
27.56667	9.356659
27.58333	9.318573
27.6	9.195135
27.61667	8.996797
27.63333	8.738496
27.65	8.432929
27.66667	8.091425
27.68333	7.723164
27.7	7.339277
27.71667	6.954024
27.73333	6.578633
27.75	6.215938
27.76667	5.86789
27.78333	5.536933
27.8	5.229805
27.81667	4.954902
27.83333	4.716035
27.85	4.505292
27.86667	4.309003
27.88333	4.122382
27.9	3.95207
27.91667	3.811152
27.93333	3.703828
27.95	3.620332
27.96667	3.547968
27.98333	3.485468
28	3.435468
28.01667	3.391913
28.03333	3.347773
28.05	3.303632
28.06667	3.264277
28.08333	3.228437
28.1	3.192499
28.11667	3.154511
28.13333	3.116913
28.15	3.082734
28.16667	3.054511
28.18333	3.032245
28.2	3.010663
28.21667	2.989569
28.23333	2.974433
28.25	2.969648
28.26667	2.973749
28.28333	2.98205
28.3	2.992402
28.31667	3.001679
28.33333	3.016523
28.35	3.049237
28.36667	3.101484
28.38333	3.164277
28.4	3.232343
28.41667	3.313202
28.43333	3.419355
28.45	3.544648
28.46667	3.669355
28.48333	3.783027
28.5	3.89621
28.51667	4.021601
28.53333	4.160273
28.55	4.30998
28.56667	4.472187
28.58333	4.65041
28.6	4.840938
28.61667	5.042305
28.63333	5.257148
28.65	5.481465
28.66667	5.706855
28.68333	5.933223
28.7	6.157929
28.71667	6.369453
28.73333	6.549922
28.75	6.688008
28.76667	6.779317
28.78333	6.824336
28.8	6.827559
28.81667	6.789083
28.83333	6.708516
28.85	6.585958
28.86667	6.430489
28.88333	6.257246
28.9	6.084199
28.91667	5.918477
28.93333	5.761543
28.95	5.614863
28.96667	5.483418
28.98333	5.370918
29	5.278828
29.01667	5.209297
29.03333	5.157441
29.05	5.11291
29.06667	5.070918
29.08333	5.031562
29.1	4.998457
29.11667	4.972188
29.13333	4.956367
29.15	4.944844
29.16667	4.936347
29.18333	4.933808
29.2	4.943769
29.21667	4.971211
29.23333	5.017304
29.25	5.080684
29.26667	5.154707
29.28333	5.234687
29.3	5.32082
29.31667	5.410566
29.33333	5.505195
29.35	5.604512
29.36667	5.699433
29.38333	5.774531
29.4	5.820234
29.41667	5.83459
29.43333	5.815644
29.45	5.768379
29.46667	5.700019
29.48333	5.611054
29.5	5.498164
29.51667	5.366817
29.53333	5.223359
29.55	5.066914
29.56667	4.897187
29.58333	4.72209
29.6	4.553242
29.61667	4.395039
29.63333	4.250605
29.65	4.121992
29.66667	4.004023
29.68333	3.889277
29.7	3.777168
29.71667	3.673945
29.73333	3.582832
29.75	3.502558
29.76667	3.431659
29.78333	3.36789
29.8	3.310175
29.81667	3.257441
29.83333	3.209491
29.85	3.166816
29.86667	3.131366
29.88333	3.105683
29.9	3.08703
29.91667	3.068573
29.93333	3.051386
29.95	3.037226
29.96667	3.026093
29.98333	3.025019
30	3.040546
30.01667	3.065253
30.03333	3.084882
30.05	3.091523
30.06667	3.095526
30.08333	3.106171
30.1	3.121601
30.11667	3.13537
30.13333	3.153144
30.15	3.17746
30.16667	3.201777
30.18333	3.222382
30.2	3.246308
30.21667	3.280683
30.23333	3.328241
30.25	3.38996
30.26667	3.470624
30.28333	3.579804
30.3	3.724335
30.31667	3.903925
30.33333	4.118085
30.35	4.369062
30.36667	4.657539
30.38333	4.983516
30.4	5.344258
30.41667	5.727851
30.43333	6.117402
30.45	6.503926
30.46667	6.879024
30.48333	7.222089
30.5	7.504511
30.51667	7.712714
30.53333	7.842402
30.55	7.896113
30.56667	7.884785
30.58333	7.820136
30.6	7.703046
30.61667	7.527851
30.63333	7.298652
30.65	7.032051
30.66667	6.747383
30.68333	6.459199
30.7	6.174434
30.71667	5.899043
30.73333	5.633809
30.75	5.37834
30.76667	5.138594
30.78333	4.922676
30.8	4.727363
30.81667	4.547285
30.83333	4.38498
30.85	4.245234
30.86667	4.123261
30.88333	4.013691
30.9	3.920331
30.91667	3.841816
30.93333	3.765449
30.95	3.68205
30.96667	3.60041
30.98333	3.536542
31	3.489374
31.01667	3.443964
31.03333	3.394062
31.05	3.34953
31.06667	3.321894
31.08333	3.305976
31.1	3.288495
31.11667	3.262421
31.13333	3.233808
31.15	3.206855
31.16667	3.183124
31.18333	3.166913
31.2	3.156366
31.21667	3.14748
31.23333	3.13703
31.25	3.122089
31.26667	3.103437
31.28333	3.088691
31.3	3.085566
31.31667	3.096406
31.33333	3.112714
31.35	3.122675
31.36667	3.123847
31.38333	3.125019
31.4	3.133417
31.41667	3.146112
31.43333	3.154706
31.45	3.149433
31.46667	3.134101
31.48333	3.123456
31.5	3.125995
31.51667	3.129999
31.53333	3.123358
31.55	3.111737
31.56667	3.108417
31.58333	3.110956
31.6	3.111347
31.61667	3.106464
31.63333	3.096601
31.65	3.087616
31.66667	3.079413
31.68333	3.067401
31.7	3.05578
31.71667	3.054023
31.73333	3.067694
31.75	3.086444
31.76667	3.094745
31.78333	3.088105
31.8	3.072577
31.81667	3.061542
31.83333	3.059589
31.85	3.058905
31.86667	3.055487
31.88333	3.052948
31.9	3.055292
31.91667	3.059882
31.93333	3.065253
31.95	3.075116
31.96667	3.089277
31.98333	3.106269
32	3.129413
32.01667	3.1633
32.03333	3.21037
32.05	3.270136
32.06667	3.342988
32.08333	3.420917
32.1	3.495331
32.11667	3.567304
32.13333	3.645917
32.15	3.734394
32.16667	3.827851
32.18333	3.91955
32.2	4.000605
32.21667	4.062421
32.23333	4.104218
32.25	4.131171
32.26667	4.143476
32.28333	4.135761
32.3	4.109004
32.31667	4.07082
32.33333	4.028047
32.35	3.980683
32.36667	3.927656
32.38333	3.869843
32.4	3.810078
32.41667	3.749824
32.43333	3.691816
32.45	3.640156
32.46667	3.593964
32.48333	3.549823
32.5	3.506464
32.51667	3.463691
32.53333	3.425214
32.55	3.396601
32.56667	3.380878
32.58333	3.371405
32.6	3.357538
32.61667	3.34162
32.63333	3.321991
32.65	3.299726
32.66667	3.278632
32.68333	3.26496
32.7	3.260956
32.71667	3.258808
32.73333	3.249042
32.75	3.2258
32.76667	3.194062
32.78333	3.167109
32.8	3.157538
32.81667	3.162323
32.83333	3.170233
32.85	3.170917
32.86667	3.163691
32.88333	3.151679
32.9	3.134784
32.91667	3.112714
32.93333	3.092988
32.95	3.086249
32.96667	3.090155
32.98333	3.092402
33	3.086542
33.01667	3.078534
33.03333	3.070527
33.05	3.061933
33.06667	3.056366
33.08333	3.057148
33.1	3.059589
33.11667	3.057636
33.13333	3.054413
33.15	3.058515
33.16667	3.070038
33.18333	3.084296
33.2	3.097187
33.21667	3.105976
33.23333	3.10744
33.25	3.10246
33.26667	3.098847
33.28333	3.102948
33.3	3.113398
33.31667	3.126288
33.33333	3.140448
33.35	3.154902
33.36667	3.166816
33.38333	3.178437
33.4	3.19123
33.41667	3.195038
33.43333	3.184394
33.45	3.172089
33.46667	3.172284
33.48333	3.177851
33.5	3.1758
33.51667	3.167402
33.53333	3.163495
33.55	3.168769
33.56667	3.176874
33.58333	3.176874
33.6	3.163593
33.61667	3.144355
33.63333	3.131562
33.65	3.127948
33.66667	3.132831
33.68333	3.142206
33.7	3.153437
33.71667	3.162714
33.73333	3.164472
33.75	3.155878
33.76667	3.141327
33.78333	3.12912
33.8	3.123065
33.81667	3.125605
33.83333	3.136152
33.85	3.147577
33.86667	3.156366
33.88333	3.162128
33.9	3.163886
33.91667	3.158222
33.93333	3.147968
33.95	3.146112
33.96667	3.154804
33.98333	3.168183
34	3.178534
34.01667	3.183124
34.03333	3.185858
34.05	3.193866
34.06667	3.209198
34.08333	3.224726
34.1	3.235956
34.11667	3.242304
34.13333	3.242011
34.15	3.240644
34.16667	3.241034
34.18333	3.243378
34.2	3.244355
34.21667	3.242792
34.23333	3.241523
34.25	3.237812
34.26667	3.23078
34.28333	3.224628
34.3	3.219355
34.31667	3.209589
34.33333	3.193866
34.35	3.179511
34.36667	3.16994
34.38333	3.160859
34.4	3.155683
34.41667	3.164277
34.43333	3.183417
34.45	3.201581
34.46667	3.205878
34.48333	3.197187
34.5	3.186249
34.51667	3.179609
34.53333	3.177167
34.55	3.181073
34.56667	3.189374
34.58333	3.19455
34.6	3.18996
34.61667	3.178339
34.63333	3.167695
34.65	3.164667
34.66667	3.169159
34.68333	3.176288
34.7	3.181855
34.71667	3.186152
34.73333	3.188691
34.75	3.186152
34.76667	3.183612
34.78333	3.189667
34.8	3.201288
34.81667	3.206757
34.83333	3.202851
34.85	3.195722
34.86667	3.193769
34.88333	3.195136
34.9	3.194062
34.91667	3.19289
34.93333	3.199726
34.95	3.213593
34.96667	3.223749
34.98333	3.229413
35	3.239667
35.01667	3.253925
35.03333	3.261835
35.05	3.260859
35.06667	3.25871
35.08333	3.258808
35.1	3.256659
35.11667	3.245624
35.13333	3.228925
35.15	3.216425
35.16667	3.210859
35.18333	3.210956
35.2	3.220722
35.21667	3.240546
35.23333	3.258515
35.25	3.263788
35.26667	3.261542
35.28333	3.261347
35.3	3.262812
35.31667	3.260175
35.33333	3.257636
35.35	3.264374
35.36667	3.280097
35.38333	3.294159
35.4	3.304316
35.41667	3.313398
35.43333	3.317401
35.45	3.317011
35.46667	3.32248
35.48333	3.331659
35.5	3.334784
35.51667	3.333222
35.53333	3.33703
35.55	3.345624
35.56667	3.348066
35.58333	3.340839
35.6	3.331757
35.61667	3.330585
35.63333	3.334784
35.65	3.333515
35.66667	3.321503
35.68333	3.310273
35.7	3.313691
35.71667	3.330683
35.73333	3.341034
35.75	3.338007
35.76667	3.330781
35.78333	3.326386
35.8	3.32453
35.81667	3.325995
35.83333	3.334101
35.85	3.344452
35.86667	3.348944
35.88333	3.34328
35.9	3.332734
35.91667	3.323261
35.93333	3.31955
35.95	3.318573
35.96667	3.315448
35.98333	3.315156
36	3.322284
36.01667	3.330683
36.03333	3.333808
36.05	3.331269
36.06667	3.324726
36.08333	3.316718
36.1	3.310565
36.11667	3.30871
36.13333	3.310956
36.15	3.318769
36.16667	3.330194
36.18333	3.337812
36.2	3.339472
36.21667	3.342206
36.23333	3.350214
36.25	3.35871
36.26667	3.35832
36.28333	3.349237
36.3	3.341327
36.31667	3.343378
36.33333	3.354218
36.35	3.367402
36.36667	3.372968
36.38333	3.367597
36.4	3.356171
36.41667	3.34914
36.43333	3.352753
36.45	3.367109
36.46667	3.384198
36.48333	3.396601
36.5	3.400214
36.51667	3.396698
36.53333	3.392304
36.55	3.39123
36.56667	3.392597
36.58333	3.392694
36.6	3.393573
36.61667	3.397089
36.63333	3.403339
36.65	3.411054
36.66667	3.413495
36.68333	3.408319
36.7	3.398359
36.71667	3.393378
36.73333	3.398163
36.75	3.412714
36.76667	3.429413
36.78333	3.439374
36.8	3.440058
36.81667	3.437812
36.83333	3.436542
36.85	3.436542
36.86667	3.434784
36.88333	3.433124
36.9	3.433808
36.91667	3.4383
36.93333	3.445038
36.95	3.451972
36.96667	3.453241
36.98333	3.448163
37	3.442109
37.01667	3.441816
37.03333	3.447675
37.05	3.452167
37.06667	3.45412
37.08333	3.457538
37.1	3.46828
37.11667	3.483905
37.13333	3.493476
37.15	3.488105
37.16667	3.475995
37.18333	3.471015
37.2	3.475605
37.21667	3.48371
37.23333	3.488202
37.25	3.48537
37.26667	3.478925
37.28333	3.475605
37.3	3.477362
37.31667	3.48078
37.33333	3.480097
37.35	3.478437
37.36667	3.48244
37.38333	3.48996
37.4	3.487812
37.41667	3.475312
37.43333	3.465741
37.45	3.468476
37.46667	3.481757
37.48333	3.500605
37.5	3.518085
37.51667	3.5258
37.53333	3.524628
37.55	3.529902
37.56667	3.542304
37.58333	3.546015
37.6	3.535761
37.61667	3.525409
37.63333	3.528144
37.65	3.536347
37.66667	3.540741
37.68333	3.540644
37.7	3.536444
37.71667	3.531757
37.73333	3.533417
37.75	3.539667
37.76667	3.542499
37.78333	3.537909
37.8	3.529608
37.81667	3.526093
37.83333	3.532733
37.85	3.544355
37.86667	3.550312
37.88333	3.54582
37.9	3.538398
37.91667	3.5383
37.93333	3.546405
37.95	3.554218
37.96667	3.557636
37.98333	3.55705
38	3.552362
38.01667	3.542987
38.03333	3.534491
38.05	3.535663
38.06667	3.546113
38.08333	3.557441
38.1	3.566523
38.11667	3.577949
38.13333	3.590449
38.15	3.597382
38.16667	3.592402
38.18333	3.582539
38.2	3.576679
38.21667	3.578925
38.23333	3.587324
38.25	3.594355
38.26667	3.593476
38.28333	3.586054
38.3	3.582441
38.31667	3.585761
38.33333	3.590156
38.35	3.589472
38.36667	3.587128
38.38333	3.587617
38.4	3.590546
38.41667	3.591132
38.43333	3.588886
38.45	3.592109
38.46667	3.60539
38.48333	3.619648
38.5	3.617988
38.51667	3.604902
38.53333	3.601093
38.55	3.616132
38.56667	3.638789
38.58333	3.653144
38.6	3.654706
38.61667	3.647382
38.63333	3.634589
38.65	3.618281
38.66667	3.607929
38.68333	3.615058
38.7	3.633515
38.71667	3.648457
38.73333	3.653632
38.75	3.654999
38.76667	3.656367
38.78333	3.652851
38.8	3.64455
38.81667	3.641523
38.83333	3.649531
38.85	3.660273
38.86667	3.658124
38.88333	3.646308
38.9	3.63957
38.91667	3.643378
38.93333	3.653144
38.95	3.658417
38.96667	3.654609
38.98333	3.649628
39	3.654804
39.01667	3.66955
39.03333	3.682734
39.05	3.688105
39.06667	3.690156
39.08333	3.693574
39.1	3.696113
39.11667	3.699043
39.13333	3.709003
39.15	3.731953
39.16667	3.758613
39.18333	3.777851
39.2	3.791621
39.21667	3.806464
39.23333	3.826777
39.25	3.84914
39.26667	3.86916
39.28333	3.881074
39.3	3.888593
39.31667	3.900507
39.33333	3.919453
39.35	3.93996
39.36667	3.961933
39.38333	3.986445
39.4	4.013007
39.41667	4.039472
39.43333	4.068574
39.45	4.10207
39.46667	4.13498
39.48333	4.163593
39.5	4.187031
39.51667	4.206367
39.53333	4.222285
39.55	4.245527
39.56667	4.282148
39.58333	4.327851
39.6	4.372187
39.61667	4.412714
39.63333	4.454511
39.65	4.499531
39.66667	4.54621
39.68333	4.592109
39.7	4.634297
39.71667	4.671992
39.73333	4.70666
39.75	4.740644
39.76667	4.769746
39.78333	4.797285
39.8	4.833027
39.81667	4.881465
39.83333	4.935078
39.85	4.984785
39.86667	5.029902
39.88333	5.072383
39.9	5.111934
39.91667	5.152558
39.93333	5.192597
39.95	5.23166
39.96667	5.27082
39.98333	5.308808
40	5.347578
40.01667	5.392012
40.03333	5.448945
40.05	5.510664
40.06667	5.563789
40.08333	5.601582
40.1	5.628828
40.11667	5.655097
40.13333	5.693281
40.15	5.747188
40.16667	5.808808
40.18333	5.86789
40.2	5.922187
40.21667	5.971406
40.23333	6.020918
40.25	6.079316
40.26667	6.142304
40.28333	6.19543
40.3	6.231269
40.31667	6.26125
40.33333	6.29416
40.35	6.331367
40.36667	6.373164
40.38333	6.421016
40.4	6.472383
40.41667	6.520918
40.43333	6.565547
40.45	6.612031
40.46667	6.662227
40.48333	6.71086
40.5	6.75002
40.51667	6.780488
40.53333	6.812422
40.55	6.85168
40.56667	6.898458
40.58333	6.948946
40.6	7.00295
40.61667	7.063789
40.63333	7.13664
40.65	7.22414
40.66667	7.3175
40.68333	7.399531
40.7	7.456269
40.71667	7.479609
40.73333	7.471894
40.75	7.442988
40.76667	7.405195
40.78333	7.367499
40.8	7.333613
40.81667	7.305097
40.83333	7.283222
40.85	7.269258
40.86667	7.264277
40.88333	7.261347
40.9	7.250312
40.91667	7.230781
40.93333	7.217597
40.95	7.220624
40.96667	7.233222
40.98333	7.24787
41	7.264863
41.01667	7.288691
41.03333	7.309492
41.05	7.31623
41.06667	7.31037
41.08333	7.305683
41.1	7.310664
41.11667	7.324433
41.13333	7.340839
41.15	7.355586
41.16667	7.370429
41.18333	7.385468
41.2	7.40539
41.21667	7.431074
41.23333	7.460078
41.25	7.485371
41.26667	7.502656
41.28333	7.511054
41.3	7.521503
41.31667	7.544355
41.33333	7.573066
41.35	7.590351
41.36667	7.595234
41.38333	7.602558
41.4	7.621601
41.41667	7.64289
41.43333	7.656757
41.45	7.660956
41.46667	7.662226
41.48333	7.670234
41.5	7.688203
41.51667	7.711738
41.53333	7.731855
41.55	7.747578
41.56667	7.762324
41.58333	7.784785
41.6	7.812031
41.61667	7.836152
41.63333	7.854804
41.65	7.873456
41.66667	7.889081
41.68333	7.897968
41.7	7.908613
41.71667	7.929023
41.73333	7.952754
41.75	7.965937
41.76667	7.968476
41.78333	7.971113
41.8	7.980097
41.81667	7.999043
41.83333	8.025507
41.85	8.052558
41.86667	8.070917
41.88333	8.079706
41.9	8.08332
41.91667	8.08332
41.93333	8.081562
41.95	8.085468
41.96667	8.099531
41.98333	8.121016
42	8.141816
42.01667	8.157734
42.03333	8.167988
42.05	8.175703
42.06667	8.184198
42.08333	8.192597
42.1	8.198261
42.11667	8.20246
42.13333	8.212226
42.15	8.229609
42.16667	8.248554
42.18333	8.260077
42.2	8.262323
42.21667	8.258808
42.23333	8.253437
42.25	8.251679
42.26667	8.25666
42.28333	8.263691
42.3	8.269355
42.31667	8.273652
42.33333	8.280293
42.35	8.289179
42.36667	8.294941
42.38333	8.295625
42.4	8.293769
42.41667	8.294844
42.43333	8.301874
42.45	8.31584
42.46667	8.331074
42.48333	8.339375
42.5	8.34123
42.51667	8.340937
42.53333	8.341035
42.55	8.340351
42.56667	8.338789
42.58333	8.337617
42.6	8.33996
42.61667	8.348652
42.63333	8.360859
42.65	8.369843
42.66667	8.371016
42.68333	8.364374
42.7	8.357734
42.71667	8.357245
42.73333	8.361738
42.75	8.365546
42.76667	8.362226
42.78333	8.359101
42.8	8.359785
42.81667	8.359491
42.83333	8.351874
42.85	8.337519
42.86667	8.316816
42.88333	8.292109
42.9	8.2633
42.91667	8.235663
42.93333	8.211249
42.95	8.195136
42.96667	8.195039
42.98333	8.209589
43	8.229023
43.01667	8.248945
43.03333	8.265449
43.05	8.281172
43.06667	8.296699
43.08333	8.313984
43.1	8.329121
43.11667	8.32873
43.13333	8.300703
43.15	8.24289
43.16667	8.151679
43.18333	8.02082
43.2	7.851679
43.21667	7.660664
43.23333	7.459785
43.25	7.241035
43.26667	7.000997
43.28333	6.752656
43.3	6.512422
43.31667	6.288203
43.33333	6.08459
43.35	5.897676
43.36667	5.714277
43.38333	5.525703
43.4	5.344453
43.41667	5.186445
43.43333	5.045332
43.45	4.901289
43.46667	4.749629
43.48333	4.599922
43.5	4.457734
43.51667	4.320429
43.53333	4.188593
43.55	4.064472
43.56667	3.949628
43.58333	3.842499
43.6	3.73664
43.61667	3.62707
43.63333	3.518964
43.65	3.420917
43.66667	3.331366
43.68333	3.241327
43.7	3.147089
43.71667	3.052167
43.73333	2.958319
43.75	2.868183
43.76667	2.781659
43.78333	2.69914
43.8	2.620917
43.81667	2.549823
43.83333	2.483417
43.85	2.413398
43.86667	2.334687
43.88333	2.251581
43.9	2.176581
43.91667	2.112519
43.93333	2.051776
43.95	1.984784
43.96667	1.91203
43.98333	1.844062
44	1.788984
44.01667	1.741034
44.03333	1.689081
44.05	1.633417
44.06667	1.582831
44.08333	1.538007
44.1	1.491132
44.11667	1.43996
44.13333	1.389277
44.15	1.346405
44.16667	1.311542
44.18333	1.279511
44.2	1.24748
44.21667	1.214569
44.23333	1.180683
44.25	1.147382
44.26667	1.117987
44.28333	1.090253
44.3	1.058222
44.31667	1.023359
44.33333	0.997382
44.35	0.9858586
44.36667	0.9830265
44.38333	0.9748234
44.4	0.956464
44.41667	0.9288273
44.43333	0.8942569
44.45	0.8593937
44.46667	0.8364445
44.48333	0.8281437
44.5	0.8228703
44.51667	0.8118351
44.53333	0.7955265
44.55	0.7749211
44.56667	0.7511905
44.58333	0.7272648
44.6	0.7089054
44.61667	0.697089
44.63333	0.6893741
44.65	0.6787297
44.66667	0.6603702
44.68333	0.6365421
44.7	0.612421
44.71667	0.5901554
44.73333	0.5681828
44.75	0.547382
44.76667	0.525507
44.78333	0.5024601
44.8	0.4799992
44.81667	0.4662296
44.83333	0.4619327
44.85	0.4571476
44.86667	0.4392765
44.88333	0.4110538
44.9	0.3834171
44.91667	0.3609562
44.93333	0.3400578
44.95	0.3188663
44.96667	0.3038273
44.98333	0.2974796
45	0.2950382
45.01667	0.2894718
45.03333	0.2772648
45.05	0.2632999
45.06667	0.250214
45.08333	0.237421
45.1	0.2277531
45.11667	0.221796
45.13333	0.2125187
45.15	0.1986515
45.16667	0.1892765
45.18333	0.1869328
45.2	0.178339
45.21667	0.1569523
45.23333	0.1354679
45.25	0.1261906
45.26667	0.1256046
45.28333	0.125214
45.3	0.1221867
45.31667	0.1185734
45.33333	0.1135929
45.35	0.1094913
45.36667	0.1085148
45.38333	0.109882
45.4	0.109589
45.41667	0.1034367
45.43333	0.09562416
45.45	0.08956947
45.46667	0.08204994
45.48333	0.0712101
45.5	0.0642765
45.51667	0.06828041
45.53333	0.07706948
45.55	0.07941322
45.56667	0.07365151
45.58333	0.06701088
45.6	0.06622963
45.61667	0.06867103
45.63333	0.06867103
45.65	0.06574135
45.66667	0.06456947
45.68333	0.06408119
45.7	0.05617104
45.71667	0.04093666
45.73333	0.02970619
45.75	0.03361244
45.76667	0.04298744
45.78333	0.04562416
45.8	0.03966713
45.81667	0.03312416
45.83333	0.02980385
45.85	0.02941322
45.86667	0.03136635
45.88333	0.03400307
45.9	0.03468666
45.91667	0.03488197
45.93333	0.03546791
45.95	0.03624916
45.96667	0.03488197
45.98333	0.02765541
46	0.01613197
46.01667	0.008905411
46.03333	0.01369057
46.05	0.02472572
46.06667	0.02882729
46.08333	0.02101479
46.1	0.007245255
46.11667	-0.005059433
46.13333	-0.008868027
46.15	-0.002227402
46.16667	0.00841713
46.18333	0.01554604
46.2	0.01603432
46.21667	0.008221817
46.23333	-0.002422714
46.25	-0.008770371
46.26667	-0.0100399
46.28333	-0.01375084
46.3	-0.01843834
46.31667	-0.01824303
46.33333	-0.01277428
46.35	-0.007989121
46.36667	-0.009649277
46.38333	-0.01687584
46.4	-0.02351646
46.41667	-0.02468834
46.43333	-0.01873131
46.45	-0.01394615
46.46667	-0.01668053
46.48333	-0.02127037
46.5	-0.0200985
46.51667	-0.01423912
46.53333	-0.009649277
46.55	-0.01492271
46.56667	-0.02429771
46.58333	-0.03113365
46.6	-0.03123131
46.61667	-0.02761803
46.63333	-0.02459068
46.65	-0.02166099
46.66667	-0.01765709
46.68333	-0.01482506
46.7	-0.01404381
46.71667	-0.01336021
46.73333	-0.01326256
46.75	-0.01550865
46.76667	-0.02087975
46.78333	-0.02507896
46.8	-0.024786
46.81667	-0.02341881
46.83333	-0.02712975
46.85	-0.03621178
46.86667	-0.04255943
46.88333	-0.0428524
46.9	-0.03826256
46.91667	-0.03367271
46.93333	-0.03181725
46.95	-0.03396568
46.96667	-0.03689537
46.98333	-0.03406334
47	-0.0263485
47.01667	-0.01990318
47.03333	-0.01668053
47.05	-0.01560631
47.06667	-0.0178524
47.08333	-0.02507896
47.1	-0.03425865
47.11667	-0.04324303
47.13333	-0.05037193
47.15	-0.05291099
47.16667	-0.04812584
47.18333	-0.04402428
47.2	-0.04119224
47.21667	-0.03416099
47.23333	-0.02078209
47.25	-0.009258652
47.26667	-0.008184433
47.28333	-0.01521568
47.3	-0.02195396
47.31667	-0.02664146
47.33333	-0.03269615
47.35	-0.03875084
47.36667	-0.03757896
47.38333	-0.02781334
47.4	-0.01746178
47.41667	-0.01296959
47.43333	-0.01619225
47.45	-0.02380943
47.46667	-0.03425865
47.48333	-0.04324303
47.5	-0.0475399
47.51667	-0.04675865
47.53333	-0.04021568
47.55	-0.03005943
47.56667	-0.02293053
47.58333	-0.02976646
47.6	-0.04900474
47.61667	-0.06433678
47.63333	-0.06218834
47.65	-0.04763756
47.66667	-0.03484459
47.68333	-0.02586021
47.7	-0.01824303
47.71667	-0.01433678
47.73333	-0.0178524
47.75	-0.02517662
47.76667	-0.02966881
47.78333	-0.02986412
47.8	-0.0263485
47.81667	-0.02214928
47.83333	-0.02078209
47.85	-0.02576256
47.86667	-0.03699303
47.88333	-0.04988365
47.9	-0.06023521
47.91667	-0.06482506
47.93333	-0.06170006
47.95	-0.04880943
47.96667	-0.0334774
47.98333	-0.0263485
48	-0.02800865
48.01667	-0.02947349
48.03333	-0.02527428
48.05	-0.02107506
48.06667	-0.02175865
48.08333	-0.02293053
48.1	-0.0209774
48.11667	-0.0178524
48.13333	-0.01961021
48.15	-0.02537193
48.16667	-0.02644615
48.18333	-0.01716881
48.2	-0.005157089
48.21667	-0.007012558
48.23333	-0.02175865
48.25	-0.03474693
48.26667	-0.03601646
48.28333	-0.02771568
48.3	-0.01912193
48.31667	-0.01736412
48.33333	-0.02205162
48.35	-0.02752037
48.36667	-0.02957115
48.38333	-0.02771568
48.4	-0.02156334
48.41667	-0.01746178
48.43333	-0.02527428
48.45	-0.03992271
48.46667	-0.04461021
48.48333	-0.03425865
48.5	-0.02263756
48.51667	-0.02136803
48.53333	-0.02654381
48.55	-0.03054771
48.56667	-0.0325985
48.58333	-0.03474693
48.6	-0.03621178
48.61667	-0.03132896
48.63333	-0.02068443
48.65	-0.007110214
48.66667	0.002460098
48.68333	0.005878067
48.7	0.0003116608
48.71667	-0.0162899
48.73333	-0.03220787
48.75	-0.03455162
48.76667	-0.02488365
48.78333	-0.01873131
48.8	-0.02400475
48.81667	-0.02966881
48.83333	-0.02839928
48.85	-0.02380943
48.86667	-0.02459068
48.88333	-0.02976646
48.9	-0.03093834
48.91667	-0.02439537
48.93333	-0.01609459
48.95	-0.01140709
48.96667	-0.009649277
48.98333	-0.01179771
49	-0.01404381
49.01667	-0.01336021
49.03333	-0.008477402
49.05	-0.005254745
49.06667	-0.00642662
49.08333	-0.01033287
49.1	-0.01531334
49.11667	-0.01990318
49.13333	-0.02273521
49.15	-0.02136803
49.16667	-0.01404381
49.18333	-0.004375839
49.2	0.000409317
49.21667	-0.0004695892
49.23333	-0.005547714
49.25	-0.01218834
49.26667	-0.01609459
49.28333	-0.01433678
49.3	-0.007989121
49.31667	-0.0009578705
49.33333	0.007342911
49.35	0.01417885
49.36667	0.01290932
49.38333	0.002753067
49.4	-0.009356308
49.41667	-0.01707115
49.43333	-0.01687584
49.45	-0.01238365
49.46667	-0.007305527
49.48333	-0.008868027
49.5	-0.01843834
49.51667	-0.02781334
49.53333	-0.02898521
49.55	-0.01873131
49.56667	-0.001934433
49.58333	0.01124916
49.6	0.01554604
49.61667	0.01017494
49.63333	-0.002520371
49.65	-0.0131649
49.66667	-0.01726646
49.68333	-0.0200985
49.7	-0.02693443
49.71667	-0.03230553
49.73333	-0.02947349
49.75	-0.02429771
49.76667	-0.02586021
49.78333	-0.03181725
49.8	-0.03074303
49.81667	-0.0178524
49.83333	-0.002325058
49.85	0.004413223
49.86667	0.00294838
49.88333	-0.001836777
49.9	-0.008086776
49.91667	-0.015411
49.93333	-0.02117271
49.95	-0.024786
49.96667	-0.02341881
49.98333	-0.01795006
50	-0.0107235
50.01667	-0.007500839
50.03333	-0.008184433
50.05	-0.008672714
50.06667	-0.005254745
50.08333	0.004803848
50.1	0.01691322
50.11667	0.02111244
50.13333	0.01369057
50.15	0.001092911
50.16667	-0.01023521
50.18333	-0.0147274
50.2	-0.0107235
50.21667	-0.00330162
50.23333	-0.002813339
50.25	-0.01150475
50.26667	-0.01882896
50.28333	-0.0147274
50.3	-0.003008652
50.31667	0.001874161
50.33333	0.0002140045
50.35	0.002460098
50.36667	0.01134682
50.38333	0.01710854
50.4	0.01456947
50.41667	0.01222572
50.43333	0.01349525
50.45	0.01417885
50.46667	0.01564369
50.48333	0.01476479
50.5	0.005194473
50.51667	-0.01111412
50.53333	-0.02068443
50.55	-0.01873131
50.56667	-0.01648521
50.58333	-0.01882896
50.6	-0.02087975
50.61667	-0.018536
50.63333	-0.01677818
50.65	-0.01951256
50.66667	-0.02068443
50.68333	-0.01492271
50.7	-0.005547714
50.71667	-0.001934433
50.73333	-0.005157089
50.75	-0.01257896
50.76667	-0.01902428
50.78333	-0.01795006
50.8	-0.008965683
50.81667	-0.004571152
50.83333	-0.01238365
50.85	-0.02595787
50.86667	-0.0350399
50.88333	-0.03611412
50.9	-0.03025475
50.91667	-0.02185631
50.93333	-0.01531334
50.95	-0.009649277
50.96667	-0.007305527
50.98333	-0.01257896
51	-0.01755943
51.01667	-0.01580162
51.03333	-0.0131649
51.05	-0.01863365
51.06667	-0.02605553
51.08333	-0.02898521
51.1	-0.03171959
51.11667	-0.03757896
51.13333	-0.04168053
51.15	-0.04099693
51.16667	-0.03953209
51.18333	-0.04148521
51.2	-0.04695396
51.21667	-0.05105553
51.23333	-0.04431725
51.25	-0.02908287
51.26667	-0.01980553
51.28333	-0.02273521
51.3	-0.02703209
51.31667	-0.02498131
51.33333	-0.02068443
51.35	-0.01804771
51.36667	-0.01550865
51.38333	-0.01570396
51.4	-0.02214928
51.41667	-0.031036
51.43333	-0.03543053
51.45	-0.03181725
51.46667	-0.02136803
51.48333	-0.009649277
51.5	-0.006035996
51.51667	-0.012286
51.53333	-0.0194149
51.55	-0.02283287
51.56667	-0.02556724
51.58333	-0.02859459
51.6	-0.03015709
51.61667	-0.02927818
51.63333	-0.0287899
51.65	-0.02654381
51.66667	-0.02000084
51.68333	-0.008770371
51.7	0.0007022858
51.71667	0.002850723
51.73333	-0.002032089
51.75	-0.01023521
51.76667	-0.01648521
51.78333	-0.01980553
51.8	-0.0209774
51.81667	-0.02000084
51.83333	-0.0194149
51.85	-0.02234459
51.86667	-0.02761803
51.88333	-0.0303524
51.9	-0.031036
51.91667	-0.03250084
51.93333	-0.03132896
51.95	-0.02595787
51.96667	-0.02351646
51.98333	-0.02654381
52	-0.02869225
52.01667	-0.02673912
52.03333	-0.02654381
52.05	-0.02771568
52.06667	-0.02761803
52.08333	-0.02654381
52.1	-0.02449303
52.11667	-0.02214928
52.13333	-0.0209774
52.15	-0.02117271
52.16667	-0.02136803
52.18333	-0.02117271
52.2	-0.02068443
52.21667	-0.02000084
52.23333	-0.02087975
52.25	-0.02420006
52.26667	-0.02673912
52.28333	-0.02703209
52.3	-0.02732506
52.31667	-0.02693443
52.33333	-0.02214928
52.35	-0.01560631
52.36667	-0.01355553
52.38333	-0.01589928
52.4	-0.01492271
52.41667	-0.009649277
52.43333	-0.007305527
52.45	-0.008770371
52.46667	-0.008086776
52.48333	-0.003106308
52.5	-0.0009578705
52.51667	-0.007403183
52.53333	-0.01814537
52.55	-0.02205162
52.56667	-0.01599693
52.58333	-0.005645371
52.6	-0.002227402
52.61667	-0.003594589
52.63333	-0.001153183
52.65	0.005487442
52.66667	0.005682754
52.68333	-0.001934433
52.7	-0.007110214
52.71667	-0.006914902
52.73333	-0.009160995
52.75	-0.01707115
52.76667	-0.02136803
52.78333	-0.01795006
52.8	-0.01238365
52.81667	-0.009453964
52.83333	-0.004766464
52.85	0.005585098
52.86667	0.01242104
52.88333	0.007928848
52.9	0.0007022858
52.91667	-0.001153183
52.93333	-0.004180527
52.95	-0.01277428
52.96667	-0.01961021
52.98333	-0.01795006
53	-0.01121178
53.01667	-0.005450058
53.03333	-0.003203964
53.05	-0.007110214
53.06667	-0.01843834
53.08333	-0.03250084
53.1	-0.04343834
53.11667	-0.04890709
53.13333	-0.04841881
53.15	-0.04197349
53.16667	-0.03269615
53.18333	-0.02820396
53.2	-0.03132896
53.21667	-0.03533287
53.23333	-0.03220787
53.25	-0.02000084
53.26667	-0.005254745
53.28333	0.003631973
53.3	0.004315567
53.31667	-0.0002742767
53.33333	-0.003496933
53.35	-0.001934433
53.36667	0.001678848
53.38333	0.003046036
53.4	0.003046036
53.41667	0.004608536
53.43333	0.006756973
53.45	0.006561661
53.46667	0.004999161
53.48333	0.002167129
53.5	-0.003692246
53.51667	-0.01052818
53.53333	-0.01326256
53.55	-0.01062584
53.56667	-0.009649277
53.58333	-0.01365318
53.6	-0.0162899
53.61667	-0.01482506
53.63333	-0.00720787
53.65	0.00294838
53.66667	0.00841713
53.68333	0.002850723
53.7	-0.01189537
53.71667	-0.02156334
53.73333	-0.01902428
53.75	-0.007110214
53.76667	0.00294838
53.78333	0.005487442
53.8	0.001483536
53.81667	-7.896424e-05
53.83333	0.004608536
53.85	0.007635879
53.86667	0.006073379
53.88333	0.007245255
53.9	0.01603432
53.91667	0.02492104
53.93333	0.02443275
53.95	0.01505775
53.96667	0.003436661
53.98333	-0.005059433
54	-0.01101646
54.01667	-0.01638756
54.03333	-0.01814537
54.05	-0.0138485
54.06667	-0.006524277
54.08333	-0.004278183
54.1	-0.005743027
54.11667	-0.006719589
54.13333	-0.006817245
54.15	-0.00720787
54.16667	-0.00486412
54.18333	0.003631973
54.2	0.01447182
54.21667	0.02033119
54.23333	0.01788979
54.25	0.01037025
54.26667	0.006073379
54.28333	0.007245255
54.3	0.01203041
54.31667	0.01720619
54.33333	0.0165226
54.35	0.00841713
54.36667	0.001776505
54.38333	0.004217911
54.4	0.01290932
54.41667	0.02081947
54.43333	0.02697182
54.45	0.02697182
54.46667	0.01691322
54.48333	0.007440567
54.5	0.007147598
54.51667	0.007538223
54.53333	0.0003116608
54.55	-0.007696152
54.56667	-0.007989121
54.58333	-0.006133652
54.6	-0.004473495
54.61667	0.001092911
54.63333	0.0102726
54.65	0.01701088
54.66667	0.015839
54.68333	0.007831192
54.7	-0.002325058
54.71667	-0.008086776
54.73333	-0.008379745
54.75	-0.01023521
54.76667	-0.01453209
54.78333	-0.01101646
54.8	0.002850723
54.81667	0.01544838
54.83333	0.018964
54.85	0.01867104
54.86667	0.02013588
54.88333	0.01876869
54.9	0.007928848
54.91667	-0.01023521
54.93333	-0.02517662
54.95	-0.02888756
54.96667	-0.02527428
54.98333	-0.02107506
55	-0.0178524
