"SampleName"	"2.5 pmol 2AA-CT"
"System Name"	"Alliance 2"
"Sample Set Name"	"DTtV_15052025 GSL new HPLC"
"Date Acquired"	"5/15/2025 2:41:17 PM BST"
"Sample Set Start Date"	"5/15/2025 2:04:31 PM BST"
0	0.001360321
0.01666667	0.003289604
0.03333333	-0.0002067566
0.05	-0.003136444
0.06666667	-0.009093476
0.08333333	-0.01592941
0.1	-0.01905441
0.1166667	-0.01827316
0.1333333	-0.01612473
0.15	-0.01173019
0.1666667	-0.003136444
0.1833333	0.003601837
0.2	0.004871368
0.2166667	0.004285431
0.2333333	0.01121902
0.25	0.02323074
0.2666667	0.02762527
0.2833333	0.01922684
0.3	0.006238556
0.3166667	-0.0007926941
0.3333333	-0.001476288
0.35	-0.001769257
0.3666667	-0.00245285
0.3833333	-0.001476288
0.4	0.003113556
0.4166667	0.007410431
0.4333333	0.004676056
0.45	-0.004991913
0.4666667	-0.01622238
0.4833333	-0.02481613
0.5	-0.02589035
0.5166667	-0.01700363
0.5333333	-0.004113006
0.55	0.002136993
0.5666667	-0.005382538
0.5833333	-0.01661301
0.6	-0.01944504
0.6166667	-0.01524582
0.6333333	-0.01690597
0.65	-0.02618332
0.6666667	-0.03174973
0.6833333	-0.02813644
0.7	-0.01846847
0.7166667	-0.01397629
0.7333333	-0.01827316
0.75	-0.0282341
0.7666667	-0.03370285
0.7833333	-0.03311691
0.8	-0.03253097
0.8166667	-0.0360466
0.8333333	-0.04063644
0.85	-0.04063644
0.8666667	-0.03712082
0.8833333	-0.03184738
0.9	-0.02257004
0.9166667	-0.01007004
0.9333333	-0.0032341
0.95	-0.01016769
0.9666667	-0.02755051
0.9833333	-0.03712082
1	-0.02950363
1.016667	-0.01612473
1.033333	-0.01544113
1.05	-0.02725754
1.066667	-0.03633957
1.083333	-0.03946457
1.1	-0.04112472
1.116667	-0.04180832
1.133333	-0.03799973
1.15	-0.03321457
1.166667	-0.03311691
1.183333	-0.03507004
1.2	-0.03380051
1.216667	-0.0297966
1.233333	-0.02794113
1.25	-0.02901535
1.266667	-0.02891769
1.283333	-0.02950363
1.3	-0.03477707
1.316667	-0.04415207
1.333333	-0.04991379
1.35	-0.04913254
1.366667	-0.04600754
1.383333	-0.0469841
1.4	-0.05215988
1.416667	-0.05714035
1.433333	-0.05987472
1.45	-0.06114426
1.466667	-0.06192551
1.483333	-0.06280442
1.5	-0.06563644
1.516667	-0.06876145
1.533333	-0.07227707
1.55	-0.07637863
1.566667	-0.07872238
1.583333	-0.07520676
1.6	-0.06846847
1.616667	-0.06739426
1.633333	-0.07237472
1.65	-0.0719841
1.666667	-0.06065597
1.683333	-0.04630051
1.7	-0.03878098
1.716667	-0.04219894
1.733333	-0.04893722
1.75	-0.05147629
1.766667	-0.05303879
1.783333	-0.05967941
1.8	-0.07032394
1.816667	-0.07715988
1.833333	-0.08057785
1.85	-0.08018722
1.866667	-0.07383957
1.883333	-0.0657341
1.9	-0.06182785
1.916667	-0.06046066
1.933333	-0.05489426
1.95	-0.04757004
1.966667	-0.04610519
1.983333	-0.05157394
2	-0.05870285
2.016667	-0.06456222
2.033333	-0.06553879
2.05	-0.06339035
2.066667	-0.06583176
2.083333	-0.07462082
2.1	-0.08487473
2.116667	-0.09278488
2.133333	-0.09747238
2.15	-0.09493332
2.166667	-0.0804802
2.183333	-0.05977707
2.2	-0.04766769
2.216667	-0.04893722
2.233333	-0.05684738
2.25	-0.06651535
2.266667	-0.07579269
2.283333	-0.0797966
2.3	-0.07432785
2.316667	-0.06202316
2.333333	-0.05548019
2.35	-0.06124191
2.366667	-0.07657395
2.383333	-0.08965988
2.4	-0.09405442
2.416667	-0.09219895
2.433333	-0.09083176
2.45	-0.09346847
2.466667	-0.09903488
2.483333	-0.1088005
2.5	-0.123156
2.516667	-0.1354607
2.533333	-0.1376091
2.55	-0.1268669
2.566667	-0.1098747
2.583333	-0.09053878
2.6	-0.0719841
2.616667	-0.05753098
2.633333	-0.05186691
2.65	-0.0492302
2.666667	-0.04971848
2.683333	-0.0570427
2.7	-0.0641716
2.716667	-0.05469894
2.733333	-0.02989426
2.75	-0.001866913
2.766667	0.01727371
2.783333	0.0248909
2.8	0.02547684
2.816667	0.02244949
2.833333	0.01170731
2.85	-0.009777069
2.866667	-0.03516769
2.883333	-0.05128098
2.9	-0.05899582
2.916667	-0.06505051
2.933333	-0.06993332
2.95	-0.07540207
2.966667	-0.08301926
2.983333	-0.08809738
3	-0.08155441
3.016667	-0.0688591
3.033333	-0.05889816
3.05	-0.05108566
3.066667	-0.03126144
3.083333	0.0006721496
3.1	0.03221512
3.116667	0.05604324
3.133333	0.08016434
3.15	0.1065315
3.166667	0.1269417
3.183333	0.1328987
3.2	0.1273323
3.216667	0.1198128
3.233333	0.1161018
3.25	0.11493
3.266667	0.1161018
3.283333	0.1223518
3.3	0.13993
3.316667	0.1788948
3.333333	0.2395393
3.35	0.3028206
3.366667	0.3408089
3.383333	0.3444222
3.4	0.3230354
3.416667	0.2869026
3.433333	0.2434456
3.45	0.1996956
3.466667	0.15868
3.483333	0.1232307
3.5	0.1000862
3.516667	0.09793778
3.533333	0.1155159
3.55	0.1380745
3.566667	0.1561409
3.583333	0.1682503
3.6	0.1789925
3.616667	0.1888557
3.633333	0.1953987
3.65	0.201844
3.666667	0.2120003
3.683333	0.2263557
3.7	0.2411995
3.716667	0.2499886
3.733333	0.2504768
3.75	0.2446175
3.766667	0.2341682
3.783333	0.2161995
3.8	0.1911995
3.816667	0.1626839
3.833333	0.1351448
3.85	0.1079964
3.866667	0.07840653
3.883333	0.04842605
3.9	0.02225418
3.916667	0.002039337
3.933333	-0.01475754
3.95	-0.0313591
3.966667	-0.04171066
3.983333	-0.0438591
4	-0.03868332
4.016667	-0.02393723
4.033333	0.004090118
4.05	0.03885574
4.066667	0.06512527
4.083333	0.07762527
4.1	0.07996903
4.116667	0.07225418
4.133333	0.05291824
4.15	0.03514481
4.166667	0.02742996
4.183333	0.02742996
4.2	0.02401199
4.216667	0.01229324
4.233333	-0.0009880066
4.25	-0.01524582
4.266667	-0.0329216
4.283333	-0.0532341
4.3	-0.0735466
4.316667	-0.08536301
4.333333	-0.08858566
4.35	-0.08438645
4.366667	-0.07549973
4.383333	-0.06514816
4.4	-0.05801926
4.416667	-0.05362473
4.433333	-0.04903488
4.45	-0.04727707
4.466667	-0.05108566
4.483333	-0.05567551
4.5	-0.05684738
4.516667	-0.05723801
4.533333	-0.06016769
4.55	-0.05782394
4.566667	-0.04415207
4.583333	-0.02647629
4.6	-0.01192551
4.616667	0.0007698059
4.633333	0.01698074
4.65	0.03162918
4.666667	0.03602371
4.683333	0.02977371
4.7	0.01698074
4.716667	0.0014534
4.733333	-0.01202316
4.75	-0.0188591
4.766667	-0.01934738
4.783333	-0.01837082
4.8	-0.01534348
4.816667	-0.006847382
4.833333	0.006238556
4.85	0.01571121
4.866667	0.01825028
4.883333	0.01805496
4.9	0.02059403
4.916667	0.02127762
4.933333	0.01561356
4.95	0.006531524
4.966667	-0.0004997253
4.983333	-0.003624725
5	-0.005675507
5.016667	-0.006261444
5.033333	-0.0016716
5.05	0.01307449
5.066667	0.03846512
5.083333	0.07069168
5.1	0.1061409
5.116667	0.1401253
5.133333	0.1691292
5.15	0.1894417
5.166667	0.1973518
5.183333	0.1901253
5.2	0.1698128
5.216667	0.142469
5.233333	0.1166878
5.25	0.09735183
5.266667	0.08553543
5.283333	0.07342605
5.3	0.05487137
5.316667	0.03250809
5.333333	0.01121902
5.35	-0.0032341
5.366667	-0.01124191
5.383333	-0.01632004
5.4	-0.0204216
5.416667	-0.02130051
5.433333	-0.01993332
5.45	-0.02032394
5.466667	-0.02344894
5.483333	-0.02432785
5.5	-0.02276535
5.516667	-0.02706223
5.533333	-0.03165207
5.55	-0.03174973
5.566667	-0.02715988
5.583333	-0.02432785
5.6	-0.02403488
5.616667	-0.02090988
5.633333	-0.01299973
5.65	0.003504181
5.666667	0.02879715
5.683333	0.05789871
5.7	0.08660965
5.716667	0.1140511
5.733333	0.1323128
5.75	0.1348518
5.766667	0.1214729
5.783333	0.101844
5.8	0.08573075
5.816667	0.07508621
5.833333	0.07098465
5.85	0.06971512
5.866667	0.06473465
5.883333	0.05106277
5.9	0.0358284
5.916667	0.02381668
5.933333	0.01424637
5.95	0.008972931
5.966667	0.006726837
5.983333	0.0004768372
6	-0.01514816
6.016667	-0.03438644
6.033333	-0.04454269
6.05	-0.04981613
6.066667	-0.06026535
6.083333	-0.07061692
6.1	-0.06739426
6.116667	-0.05430832
6.133333	-0.04444504
6.15	-0.04005051
6.166667	-0.03428879
6.183333	-0.02344894
6.2	-0.01046066
6.216667	-0.002550506
6.233333	-0.001769257
6.25	-0.004308319
6.266667	-0.003331757
6.283333	0.0007698059
6.3	0.002820587
6.316667	0.0007698059
6.333333	-0.004894257
6.35	-0.008995819
6.366667	-0.01055832
6.383333	-0.01339035
6.4	-0.01973801
6.416667	-0.02628097
6.433333	-0.02647629
6.45	-0.02549973
6.466667	-0.03008957
6.483333	-0.03673019
6.5	-0.04151535
6.516667	-0.04483566
6.533333	-0.0492302
6.55	-0.05303879
6.566667	-0.05342941
6.583333	-0.04727707
6.6	-0.03301926
6.616667	-0.01651535
6.633333	-0.008019256
6.65	-0.008116913
6.666667	-0.008507538
6.683333	-0.005187226
6.7	-0.003331757
6.716667	-0.006163788
6.733333	-0.00401535
6.75	0.01258621
6.766667	0.03758621
6.783333	0.05819168
6.8	0.07440262
6.816667	0.09227371
6.833333	0.1140511
6.85	0.1318245
6.866667	0.1460823
6.883333	0.15868
6.9	0.1713753
6.916667	0.1797737
6.933333	0.1800667
6.95	0.1759651
6.966667	0.1744026
6.983333	0.1785042
7	0.1886604
7.016667	0.2019417
7.033333	0.2157112
7.05	0.2343636
7.066667	0.2594612
7.083333	0.2834846
7.1	0.2968636
7.116667	0.3050667
7.133333	0.3161018
7.15	0.3197151
7.166667	0.3087776
7.183333	0.2945198
7.2	0.2874885
7.216667	0.2798714
7.233333	0.264344
7.25	0.2495003
7.266667	0.2470589
7.283333	0.261219
7.3	0.2925667
7.316667	0.3436409
7.333333	0.4214729
7.35	0.5315315
7.366667	0.6730354
7.383333	0.8405159
7.4	1.026551
7.416667	1.216297
7.433333	1.390321
7.45	1.534071
7.466667	1.644227
7.483333	1.7162
7.5	1.741688
7.516667	1.718055
7.533333	1.654481
7.55	1.561903
7.566667	1.445008
7.583333	1.311512
7.6	1.176063
7.616667	1.047157
7.633333	0.9229378
7.65	0.8007698
7.666667	0.6843635
7.683333	0.5779182
7.7	0.4848518
7.716667	0.4063362
7.733333	0.3390511
7.75	0.2786995
7.766667	0.2239143
7.783333	0.1769417
7.8	0.1375862
7.816667	0.1007698
7.833333	0.06580887
7.85	0.03787918
7.866667	0.02137527
7.883333	0.01229324
7.9	0.004187775
7.916667	-0.005773163
7.933333	-0.01163254
7.95	-0.006749725
7.966667	0.003699493
7.983333	0.006531524
8	-1.144409e-05
8.016667	-0.008605194
8.033333	-0.01348801
8.05	-0.01641769
8.066667	-0.02090988
8.083333	-0.02647629
8.1	-0.02755051
8.116667	-0.02325363
8.133333	-0.01749191
8.15	-0.01426926
8.166667	-0.01114426
8.183333	-0.006261444
8.2	8.621216e-05
8.216667	0.004676056
8.233333	0.008386994
8.25	0.01492996
8.266667	0.02430496
8.283333	0.03055496
8.3	0.0342659
8.316667	0.04168778
8.333333	0.05633621
8.35	0.07381668
8.366667	0.08709793
8.383333	0.09432449
8.4	0.1003792
8.416667	0.1106331
8.433333	0.1197151
8.45	0.12118
8.466667	0.1137581
8.483333	0.1031136
8.5	0.09422684
8.516667	0.08768387
8.533333	0.07791825
8.55	0.06209793
8.566667	0.04442215
8.583333	0.03065262
8.6	0.02225418
8.616667	0.02284012
8.633333	0.03065262
8.65	0.03446121
8.666667	0.02430496
8.683333	0.004480743
8.7	-0.009386444
8.716667	-0.01495285
8.733333	-0.02081222
8.75	-0.03067551
8.766667	-0.04053879
8.783333	-0.04590988
8.8	-0.05079269
8.816667	-0.05733566
8.833333	-0.06397629
8.85	-0.06924973
8.866667	-0.07325363
8.883333	-0.07764816
8.9	-0.08370285
8.916667	-0.09161301
8.933333	-0.09805832
8.95	-0.09952316
8.966667	-0.09805832
8.983333	-0.09883957
9	-0.09874191
9.016667	-0.09678879
9.033333	-0.097863
9.05	-0.1028435
9.066667	-0.1020622
9.083333	-0.09044113
9.1	-0.07725754
9.116667	-0.07530441
9.133333	-0.08575363
9.15	-0.09932785
9.166667	-0.1063591
9.183333	-0.1049919
9.2	-0.1085075
9.216667	-0.1159294
9.233333	-0.1196404
9.25	-0.1132927
9.266667	-0.104113
9.283333	-0.09971847
9.3	-0.1015739
9.316667	-0.1078239
9.333333	-0.1156364
9.35	-0.1215935
9.366667	-0.1213982
9.383333	-0.1165154
9.4	-0.1099724
9.416667	-0.1029411
9.433333	-0.09669113
9.45	-0.09151535
9.466667	-0.08438645
9.483333	-0.07393722
9.5	-0.06680832
9.516667	-0.06846847
9.533333	-0.07227707
9.55	-0.06612472
9.566667	-0.04962082
9.583333	-0.03106613
9.6	-0.01426926
9.616667	-0.002355194
9.633333	0.006629181
9.65	0.02010574
9.666667	0.04774246
9.683333	0.1027229
9.7	0.2091682
9.716667	0.4141487
9.733333	0.8127815
9.75	1.575282
9.766667	2.97245
9.783333	5.400379
9.8	9.354189
9.816667	15.30526
9.833333	23.49432
9.85	33.69911
9.866667	45.07499
9.883333	56.1995
9.9	65.43193
9.916667	71.44062
9.933333	73.61122
9.95	72.14765
9.966667	67.8831
9.983333	61.92577
10	55.30996
10.01667	48.80165
10.03333	42.86181
10.05	37.6997
10.06667	33.3496
10.08333	29.74716
10.1	26.78895
10.11667	24.36386
10.13333	22.37255
10.15	20.73632
10.16667	19.38348
10.18333	18.23837
10.2	17.24081
10.21667	16.35302
10.23333	15.54833
10.25	14.79354
10.26667	14.06698
10.28333	13.36562
10.3	12.68896
10.31667	12.02538
10.33333	11.36454
10.35	10.70556
10.36667	10.05087
10.38333	9.401455
10.4	8.762197
10.41667	8.143934
10.43333	7.55038
10.45	6.982118
10.46667	6.439149
10.48333	5.924305
10.5	5.431336
10.51667	4.95243
10.53333	4.491786
10.55	4.062293
10.56667	3.670008
10.58333	3.308192
10.6	2.96952
10.61667	2.657508
10.63333	2.375965
10.65	2.120887
10.66667	1.888465
10.68333	1.678309
10.7	1.488367
10.71667	1.311414
10.73333	1.145106
10.75	0.9968635
10.76667	0.8691292
10.78333	0.7599495
10.8	0.6696175
10.81667	0.5983284
10.83333	0.5379769
10.85	0.4816292
10.86667	0.4290901
10.88333	0.3817268
10.9	0.3341683
10.91667	0.2857307
10.93333	0.2464729
10.95	0.2194221
10.96667	0.1979378
10.98333	0.1773323
11	0.1642464
11.01667	0.1563362
11.03333	0.1404182
11.05	0.1157112
11.06667	0.09637527
11.08333	0.09344558
11.1	0.09803543
11.11667	0.0952034
11.13333	0.08700027
11.15	0.08397293
11.16667	0.08670731
11.18333	0.08553543
11.2	0.08006668
11.21667	0.07635574
11.23333	0.07742997
11.25	0.07518387
11.26667	0.0639534
11.28333	0.04725418
11.3	0.03485184
11.31667	0.03104324
11.33333	0.03319168
11.35	0.03602371
11.36667	0.03983231
11.38333	0.04510574
11.4	0.04666824
11.41667	0.04090653
11.43333	0.03133621
11.45	0.02469559
11.46667	0.01883621
11.48333	0.01209793
11.5	0.008679962
11.51667	0.009168243
11.53333	0.008386994
11.55	0.00379715
11.56667	0.001648712
11.58333	0.00692215
11.6	0.01473465
11.61667	0.01776199
11.63333	0.01815262
11.65	0.02108231
11.66667	0.02235184
11.68333	0.01834793
11.7	0.01160965
11.71667	0.006531524
11.73333	0.003504181
11.75	0.006238556
11.76667	0.0139534
11.78333	0.02274246
11.8	0.02850418
11.81667	0.03299637
11.83333	0.03407059
11.85	0.02869949
11.86667	0.02039871
11.88333	0.01571121
11.9	0.01717606
11.91667	0.02391434
11.93333	0.03289871
11.95	0.03953934
11.96667	0.04080887
11.98333	0.03621902
12	0.02938309
12.01667	0.02576981
12.03333	0.03045731
12.05	0.04110184
12.06667	0.05037918
12.08333	0.05252762
12.1	0.05135574
12.11667	0.05701981
12.13333	0.07205887
12.15	0.08338699
12.16667	0.08241043
12.18333	0.07625809
12.2	0.07742997
12.21667	0.08475418
12.23333	0.09022293
12.25	0.09149246
12.26667	0.08924637
12.28333	0.08485184
12.3	0.08094559
12.31667	0.07899246
12.33333	0.07528152
12.35	0.06991043
12.36667	0.07186355
12.38333	0.08504715
12.4	0.0992073
12.41667	0.1035042
12.43333	0.09871902
12.45	0.09549637
12.46667	0.09666824
12.48333	0.09871902
12.5	0.0998909
12.51667	0.1051643
12.53333	0.1153206
12.55	0.1244026
12.56667	0.1236214
12.58333	0.1124886
12.6	0.09764481
12.61667	0.08826981
12.63333	0.08797684
12.65	0.09930496
12.66667	0.1184456
12.68333	0.1364143
12.7	0.1481331
12.71667	0.1498909
12.73333	0.1500862
12.75	0.148719
12.76667	0.1453011
12.78333	0.1378792
12.8	0.1304573
12.81667	0.1276253
12.83333	0.1310432
12.85	0.1381721
12.86667	0.1457893
12.88333	0.1533089
12.9	0.1598518
12.91667	0.1650276
12.93333	0.1712776
12.95	0.1801643
12.96667	0.1888557
12.98333	0.1900276
13	0.1842659
13.01667	0.1788948
13.03333	0.1795784
13.05	0.1864143
13.06667	0.1908089
13.08333	0.1872932
13.1	0.1797737
13.11667	0.1750862
13.13333	0.1747932
13.15	0.1794807
13.16667	0.1888557
13.18333	0.198719
13.2	0.2062386
13.21667	0.2089729
13.23333	0.2070198
13.25	0.2044807
13.26667	0.2094612
13.28333	0.2219612
13.3	0.2340706
13.31667	0.2370003
13.33333	0.2342659
13.35	0.2279182
13.36667	0.2198128
13.38333	0.2161995
13.4	0.2251839
13.41667	0.243055
13.43333	0.2532112
13.45	0.2515511
13.46667	0.2508675
13.48333	0.2622932
13.5	0.2793831
13.51667	0.286219
13.53333	0.2811409
13.55	0.2744026
13.56667	0.2745003
13.58333	0.2785042
13.6	0.2827034
13.61667	0.2901253
13.63333	0.3006721
13.65	0.3062386
13.66667	0.3022346
13.68333	0.2979378
13.7	0.3001839
13.71667	0.3059456
13.73333	0.3119026
13.75	0.3161018
13.76667	0.3176643
13.78333	0.3169807
13.8	0.3166878
13.81667	0.3175667
13.83333	0.3187385
13.85	0.3186409
13.86667	0.3196175
13.88333	0.3212776
13.9	0.3214729
13.91667	0.3186409
13.93333	0.3117073
13.95	0.3067268
13.96667	0.3120979
13.98333	0.3250862
14	0.3345589
14.01667	0.333387
14.03333	0.3262581
14.05	0.3236214
14.06667	0.3296761
14.08333	0.3370979
14.1	0.3392464
14.11667	0.339637
14.13333	0.3435432
14.15	0.3459846
14.16667	0.3406135
14.18333	0.3323128
14.2	0.3322151
14.21667	0.3426643
14.23333	0.3571175
14.25	0.3672737
14.26667	0.3724495
14.28333	0.3721565
14.3	0.3650276
14.31667	0.3526253
14.33333	0.3426643
14.35	0.3404182
14.36667	0.3447151
14.38333	0.3535042
14.4	0.364344
14.41667	0.3745003
14.43333	0.3807503
14.45	0.3842659
14.46667	0.3919807
14.48333	0.4056526
14.5	0.414344
14.51667	0.4117073
14.53333	0.4062386
14.55	0.4066292
14.56667	0.4102425
14.58333	0.4117073
14.6	0.4148323
14.61667	0.4245979
14.63333	0.4403206
14.65	0.4512581
14.66667	0.4516487
14.68333	0.4440315
14.7	0.4320198
14.71667	0.4201058
14.73333	0.4110237
14.75	0.4092659
14.76667	0.4167854
14.78333	0.4324104
14.8	0.4486214
14.81667	0.4561409
14.83333	0.4557503
14.85	0.4545784
14.86667	0.4563362
14.88333	0.4596565
14.9	0.4634651
14.91667	0.4661018
14.93333	0.4651253
14.95	0.4640511
14.96667	0.468055
14.98333	0.4775276
15	0.4879768
15.01667	0.4923714
15.03333	0.4850472
15.05	0.4659065
15.06667	0.4486214
15.08333	0.4445198
15.1	0.4520393
15.11667	0.4589729
15.13333	0.461512
15.15	0.4641487
15.16667	0.4703011
15.18333	0.4753792
15.2	0.4757698
15.21667	0.4741096
15.23333	0.4749885
15.25	0.4807503
15.26667	0.4880745
15.28333	0.4980354
15.3	0.5067269
15.31667	0.5097542
15.33333	0.5094612
15.35	0.5152229
15.36667	0.5279182
15.38333	0.5352424
15.4	0.533094
15.41667	0.5286018
15.43333	0.5278206
15.45	0.5272347
15.46667	0.5242073
15.48333	0.5206917
15.5	0.5200081
15.51667	0.5200081
15.53333	0.5172737
15.55	0.514344
15.56667	0.5122932
15.58333	0.512098
15.6	0.512098
15.61667	0.511512
15.63333	0.5154182
15.65	0.5263557
15.66667	0.5386604
15.68333	0.5453011
15.7	0.5466682
15.71667	0.5502815
15.73333	0.5578987
15.75	0.567176
15.76667	0.5736214
15.78333	0.574012
15.8	0.5668831
15.81667	0.558387
15.83333	0.5592659
15.85	0.568055
15.86667	0.5770394
15.88333	0.5854378
15.9	0.5921761
15.91667	0.5901253
15.93333	0.5775276
15.95	0.5665901
15.96667	0.567762
15.98333	0.574598
16	0.5733284
16.01667	0.5637581
16.03333	0.5594612
16.05	0.5695198
16.06667	0.5828987
16.08333	0.5888557
16.1	0.5837776
16.11667	0.5790901
16.13333	0.5864143
16.15	0.6040901
16.16667	0.6179573
16.18333	0.6176643
16.2	0.6059456
16.21667	0.5919808
16.23333	0.5843636
16.25	0.5846565
16.26667	0.5892464
16.28333	0.5934456
16.3	0.5994026
16.31667	0.6092659
16.33333	0.6200081
16.35	0.6288948
16.36667	0.6361214
16.38333	0.6418831
16.4	0.6450081
16.41667	0.6435432
16.43333	0.6411018
16.45	0.6372932
16.46667	0.6307503
16.48333	0.624305
16.5	0.6249886
16.51667	0.6328987
16.53333	0.6413948
16.55	0.6464729
16.56667	0.651844
16.58333	0.6627815
16.6	0.6762581
16.61667	0.6879768
16.63333	0.6925667
16.65	0.689344
16.66667	0.6788948
16.68333	0.6715706
16.7	0.6738167
16.71667	0.6838753
16.73333	0.6920784
16.75	0.6950081
16.76667	0.6970589
16.78333	0.6974495
16.8	0.69618
16.81667	0.6965706
16.83333	0.7005745
16.85	0.704676
16.86667	0.705555
16.88333	0.7039925
16.9	0.7050667
16.91667	0.7137581
16.93333	0.7283089
16.95	0.7375862
16.96667	0.7370003
16.98333	0.7321175
17	0.7304573
17.01667	0.7311409
17.03333	0.7275276
17.05	0.7197151
17.06667	0.7164925
17.08333	0.7204964
17.1	0.7241096
17.11667	0.7245979
17.13333	0.7276253
17.15	0.736512
17.16667	0.7470589
17.18333	0.7541878
17.2	0.7567269
17.21667	0.7584847
17.23333	0.7593635
17.25	0.755555
17.26667	0.7472542
17.28333	0.7413948
17.3	0.7425667
17.31667	0.7453987
17.33333	0.7433479
17.35	0.7364143
17.36667	0.7300667
17.38333	0.7338753
17.4	0.7468635
17.41667	0.755555
17.43333	0.7535042
17.45	0.7482308
17.46667	0.7504768
17.48333	0.758094
17.5	0.7623909
17.51667	0.7623909
17.53333	0.764637
17.55	0.7752815
17.56667	0.7882698
17.58333	0.7949104
17.6	0.7905159
17.61667	0.7811409
17.63333	0.7744026
17.65	0.7736214
17.66667	0.7815315
17.68333	0.7974495
17.7	0.8145393
17.71667	0.8191292
17.73333	0.8120979
17.75	0.8071175
17.76667	0.8131722
17.78333	0.8238167
17.8	0.8318245
17.81667	0.8371956
17.83333	0.8379768
17.85	0.832801
17.86667	0.8235237
17.88333	0.817762
17.9	0.817762
17.91667	0.8206917
17.93333	0.8236214
17.95	0.8269417
17.96667	0.8314339
17.98333	0.8340706
18	0.830555
18.01667	0.8221565
18.03333	0.8163948
18.05	0.8198128
18.06667	0.8315315
18.08333	0.84618
18.1	0.8595589
18.11667	0.8697151
18.13333	0.8759651
18.15	0.8754768
18.16667	0.868055
18.18333	0.8582894
18.2	0.8573128
18.21667	0.8669807
18.23333	0.8803596
18.25	0.8867073
18.26667	0.879676
18.28333	0.8634651
18.3	0.8492073
18.31667	0.8479378
18.33333	0.858387
18.35	0.8712776
18.36667	0.8823128
18.38333	0.8881721
18.4	0.8917854
18.41667	0.8968636
18.43333	0.902137
18.45	0.911512
18.46667	0.9270393
18.48333	0.9418831
18.5	0.9425667
18.51667	0.9304573
18.53333	0.9188362
18.55	0.9120003
18.56667	0.9089729
18.58333	0.9104378
18.6	0.9133675
18.61667	0.9179573
18.63333	0.926844
18.65	0.9370003
18.66667	0.9363167
18.68333	0.9267464
18.7	0.9191292
18.71667	0.9173714
18.73333	0.9216682
18.75	0.9284065
18.76667	0.9292854
18.78333	0.9230354
18.8	0.9156135
18.81667	0.911512
18.83333	0.9101448
18.85	0.9138557
18.86667	0.9233284
18.88333	0.933973
18.9	0.9437386
18.91667	0.9517463
18.93333	0.9563362
18.95	0.9579964
18.96667	0.9613167
18.98333	0.9660042
19	0.9690315
19.01667	0.9673713
19.03333	0.9635628
19.05	0.9570198
19.06667	0.9474495
19.08333	0.942469
19.1	0.9508675
19.11667	0.9702034
19.13333	0.9850472
19.15	0.9883674
19.16667	0.9891487
19.18333	0.9968635
19.2	1.009949
19.21667	1.020692
19.23333	1.019227
19.25	1.008778
19.26667	1.000184
19.28333	0.998719
19.3	1.001453
19.31667	1.004188
19.33333	1.009266
19.35	1.015125
19.36667	1.01659
19.38333	1.013465
19.4	1.010047
19.41667	1.006336
19.43333	1.001551
19.45	1.000867
19.46667	1.007118
19.48333	1.01366
19.5	1.018446
19.51667	1.02577
19.53333	1.035828
19.55	1.043153
19.56667	1.04911
19.58333	1.057801
19.6	1.065614
19.61667	1.064832
19.63333	1.053699
19.65	1.039246
19.66667	1.028114
19.68333	1.027918
19.7	1.037684
19.71667	1.048426
19.73333	1.05243
19.75	1.052235
19.76667	1.051356
19.78333	1.050672
19.8	1.049598
19.81667	1.048231
19.83333	1.04452
19.85	1.041688
19.86667	1.046571
19.88333	1.061805
19.9	1.077625
19.91667	1.084266
19.93333	1.081825
19.95	1.075379
19.96667	1.071961
19.98333	1.07577
20	1.085926
20.01667	1.095301
20.03333	1.097059
20.05	1.090711
20.06667	1.084559
20.08333	1.08661
20.1	1.093836
20.11667	1.098035
20.13333	1.09452
20.15	1.085535
20.16667	1.077625
20.18333	1.077137
20.2	1.085243
20.21667	1.098621
20.23333	1.11161
20.25	1.115711
20.26667	1.11034
20.28333	1.105457
20.3	1.111512
20.31667	1.125867
20.33333	1.137684
20.35	1.138172
20.36667	1.127528
20.38333	1.116688
20.4	1.117664
20.41667	1.129676
20.43333	1.140125
20.45	1.142078
20.46667	1.142371
20.48333	1.146473
20.5	1.149696
20.51667	1.152039
20.53333	1.157703
20.55	1.165418
20.56667	1.170203
20.58333	1.167957
20.6	1.16034
20.61667	1.153895
20.63333	1.154188
20.65	1.160633
20.66667	1.165321
20.68333	1.169813
20.7	1.178114
20.71667	1.186512
20.73333	1.18495
20.75	1.177918
20.76667	1.176356
20.78333	1.183973
20.8	1.196473
20.81667	1.204578
20.83333	1.202723
20.85	1.191981
20.86667	1.182313
20.88333	1.183485
20.9	1.189344
20.91667	1.185828
20.93333	1.171766
20.95	1.155262
20.96667	1.147743
20.98333	1.156532
21	1.176942
21.01667	1.193934
21.03333	1.194813
21.05	1.186707
21.06667	1.184266
21.08333	1.196278
21.1	1.214442
21.11667	1.227528
21.13333	1.228895
21.15	1.225379
21.16667	1.227332
21.18333	1.224891
21.2	1.214637
21.21667	1.204578
21.23333	1.205555
21.25	1.215418
21.26667	1.224696
21.28333	1.227821
21.3	1.223328
21.31667	1.220496
21.33333	1.222547
21.35	1.230164
21.36667	1.237098
21.38333	1.240809
21.4	1.239539
21.41667	1.237196
21.43333	1.240028
21.45	1.245008
21.46667	1.242664
21.48333	1.229188
21.5	1.216395
21.51667	1.214539
21.53333	1.221668
21.55	1.23241
21.56667	1.243739
21.58333	1.255946
21.6	1.262782
21.61667	1.264149
21.63333	1.269032
21.65	1.280457
21.66667	1.290516
21.68333	1.291199
21.7	1.284364
21.71667	1.278797
21.73333	1.281824
21.75	1.293934
21.76667	1.306336
21.78333	1.313367
21.8	1.316395
21.81667	1.320496
21.83333	1.322938
21.85	1.318055
21.86667	1.308973
21.88333	1.307801
21.9	1.318836
21.91667	1.33075
21.93333	1.333192
21.95	1.327137
21.96667	1.320008
21.98333	1.315223
22	1.311903
22.01667	1.31366
22.03333	1.321766
22.05	1.328211
22.06667	1.325282
22.08333	1.319422
22.1	1.322157
22.11667	1.331922
22.13333	1.339539
22.15	1.341102
22.16667	1.339832
22.18333	1.338465
22.2	1.341688
22.21667	1.351258
22.23333	1.362196
22.25	1.367371
22.26667	1.364246
22.28333	1.360047
22.3	1.360828
22.31667	1.366785
22.33333	1.373328
22.35	1.379676
22.36667	1.389539
22.38333	1.40116
22.4	1.404285
22.41667	1.396571
22.43333	1.389637
22.45	1.395106
22.46667	1.40575
22.48333	1.410242
22.5	1.40741
22.51667	1.40409
22.53333	1.404969
22.55	1.410828
22.56667	1.41991
22.58333	1.427137
22.6	1.428699
22.61667	1.423035
22.63333	1.415809
22.65	1.414051
22.66667	1.418739
22.68333	1.42577
22.7	1.426063
22.71667	1.41786
22.73333	1.406532
22.75	1.401551
22.76667	1.409657
22.78333	1.427137
22.8	1.443446
22.81667	1.446961
22.83333	1.442664
22.85	1.440125
22.86667	1.442371
22.88333	1.447938
22.9	1.455457
22.91667	1.46493
22.93333	1.473035
22.95	1.478114
22.96667	1.478895
22.98333	1.473719
23	1.463563
23.01667	1.454188
23.03333	1.45243
23.05	1.457606
23.06667	1.464051
23.08333	1.469617
23.1	1.4745
23.11667	1.479676
23.13333	1.481239
23.15	1.478309
23.16667	1.471766
23.18333	1.468543
23.2	1.471473
23.21667	1.477332
23.23333	1.480555
23.25	1.480946
23.26667	1.482606
23.28333	1.485438
23.3	1.486707
23.31667	1.484168
23.33333	1.479969
23.35	1.480457
23.36667	1.486414
23.38333	1.494324
23.4	1.499207
23.41667	1.499305
23.43333	1.494715
23.45	1.492469
23.46667	1.499207
23.48333	1.508094
23.5	1.510047
23.51667	1.508582
23.53333	1.511903
23.55	1.517371
23.56667	1.516688
23.58333	1.512782
23.6	1.512
23.61667	1.516883
23.63333	1.5245
23.65	1.528407
23.66667	1.52577
23.68333	1.514246
23.7	1.502723
23.71667	1.501649
23.73333	1.514637
23.75	1.53495
23.76667	1.549305
23.78333	1.552137
23.8	1.546766
23.81667	1.541199
23.83333	1.538758
23.85	1.537586
23.86667	1.534364
23.88333	1.530848
23.9	1.5287
23.91667	1.527918
23.93333	1.53241
23.95	1.546961
23.96667	1.570203
23.98333	1.58661
24	1.587782
24.01667	1.579871
24.03333	1.572938
24.05	1.570789
24.06667	1.572157
24.08333	1.574891
24.1	1.58036
24.11667	1.583582
24.13333	1.577039
24.15	1.562879
24.16667	1.556434
24.18333	1.566688
24.2	1.576942
24.21667	1.574891
24.23333	1.568739
24.25	1.569813
24.26667	1.576942
24.28333	1.582801
24.3	1.585243
24.31667	1.590223
24.33333	1.603407
24.35	1.620203
24.36667	1.630067
24.38333	1.629188
24.4	1.622254
24.41667	1.618348
24.43333	1.620008
24.45	1.625574
24.46667	1.629676
24.48333	1.630653
24.5	1.629188
24.51667	1.627528
24.53333	1.628309
24.55	1.633094
24.56667	1.637293
24.58333	1.637977
24.6	1.636512
24.61667	1.637977
24.63333	1.643836
24.65	1.647059
24.66667	1.646668
24.68333	1.645985
24.7	1.646864
24.71667	1.648524
24.73333	1.652137
24.75	1.656629
24.76667	1.656336
24.78333	1.651453
24.8	1.650184
24.81667	1.655653
24.83333	1.662489
24.85	1.666492
24.86667	1.669422
24.88333	1.675867
24.9	1.687196
24.91667	1.698914
24.93333	1.705262
24.95	1.707996
24.96667	1.712684
24.98333	1.719422
25	1.722352
25.01667	1.719324
25.03333	1.714442
25.05	1.708778
25.06667	1.701844
25.08333	1.696864
25.1	1.699305
25.11667	1.705555
25.13333	1.709266
25.15	1.706727
25.16667	1.701942
25.18333	1.70116
25.2	1.705457
25.21667	1.711414
25.23333	1.713367
25.25	1.711121
25.26667	1.708582
25.28333	1.712586
25.3	1.723133
25.31667	1.733387
25.33333	1.737293
25.35	1.736805
25.36667	1.736219
25.38333	1.733094
25.4	1.721473
25.41667	1.706336
25.43333	1.696375
25.45	1.6995
25.46667	1.712293
25.48333	1.729188
25.5	1.744813
25.51667	1.758289
25.53333	1.771668
25.55	1.782996
25.56667	1.787293
25.58333	1.782117
25.6	1.770106
25.61667	1.757899
25.63333	1.749012
25.65	1.74491
25.66667	1.750184
25.68333	1.762196
25.7	1.773231
25.71667	1.78075
25.73333	1.785633
25.75	1.782801
25.76667	1.770203
25.78333	1.759657
25.8	1.759657
25.81667	1.767762
25.83333	1.778309
25.85	1.787098
25.86667	1.790516
25.88333	1.788563
25.9	1.788563
25.91667	1.793739
25.93333	1.799403
25.95	1.79784
25.96667	1.789539
25.98333	1.783387
26	1.784461
26.01667	1.790125
26.03333	1.79491
26.05	1.798035
26.06667	1.7995
26.08333	1.796571
26.1	1.792078
26.11667	1.795985
26.13333	1.810145
26.15	1.821473
26.16667	1.817567
26.18333	1.804188
26.2	1.796571
26.21667	1.797742
26.23333	1.800575
26.25	1.796571
26.26667	1.786903
26.28333	1.782606
26.3	1.790125
26.31667	1.800867
26.33333	1.804188
26.35	1.803406
26.36667	1.808387
26.38333	1.819129
26.4	1.827625
26.41667	1.831532
26.43333	1.833485
26.45	1.835535
26.46667	1.838465
26.48333	1.841004
26.5	1.839149
26.51667	1.833094
26.53333	1.83075
26.55	1.83993
26.56667	1.855262
26.58333	1.864051
26.6	1.866883
26.61667	1.871766
26.63333	1.878992
26.65	1.881531
26.66667	1.875965
26.68333	1.869032
26.7	1.868348
26.71667	1.871375
26.73333	1.868739
26.75	1.858973
26.76667	1.850868
26.78333	1.855457
26.8	1.868446
26.81667	1.881727
26.83333	1.887586
26.85	1.887879
26.86667	1.892567
26.88333	1.901746
26.9	1.901063
26.91667	1.885535
26.93333	1.870203
26.95	1.867469
26.96667	1.875086
26.98333	1.88534
27	1.892176
27.01667	1.890711
27.03333	1.88202
27.05	1.876942
27.06667	1.88368
27.08333	1.895985
27.1	1.906824
27.11667	1.92284
27.13333	1.948524
27.15	1.971961
27.16667	1.976258
27.18333	1.959754
27.2	1.937782
27.21667	1.920985
27.23333	1.912098
27.25	1.907313
27.26667	1.906629
27.28333	1.913856
27.3	1.928993
27.31667	1.947059
27.33333	1.956043
27.35	1.956239
27.36667	1.957606
27.38333	1.965321
27.4	1.972938
27.41667	1.971278
27.43333	1.96161
27.45	1.952332
27.46667	1.948914
27.48333	1.948719
27.5	1.949696
27.51667	1.952332
27.53333	1.955164
27.55	1.957801
27.56667	1.962684
27.58333	1.970594
27.6	1.977723
27.61667	1.98241
27.63333	1.986414
27.65	1.98534
27.66667	1.97616
27.68333	1.96825
27.7	1.974793
27.71667	1.99159
27.73333	2.002723
27.75	2.000867
27.76667	1.988953
27.78333	1.978992
27.8	1.98036
27.81667	1.991004
27.83333	2.005946
27.85	2.017762
27.86667	2.021571
27.88333	2.014442
27.9	2.007703
27.91667	2.008485
27.93333	2.01327
27.95	2.014539
27.96667	2.014442
27.98333	2.018153
28	2.02284
28.01667	2.024598
28.03333	2.028016
28.05	2.037781
28.06667	2.048231
28.08333	2.053993
28.1	2.058094
28.11667	2.066493
28.13333	2.073231
28.15	2.073621
28.16667	2.068836
28.18333	2.059657
28.2	2.045106
28.21667	2.029481
28.23333	2.023036
28.25	2.026453
28.26667	2.032703
28.28333	2.040614
28.3	2.054578
28.31667	2.068738
28.33333	2.070301
28.35	2.064735
28.36667	2.068348
28.38333	2.085438
28.4	2.100184
28.41667	2.099598
28.43333	2.087489
28.45	2.075477
28.46667	2.068934
28.48333	2.067274
28.5	2.069031
28.51667	2.072645
28.53333	2.078407
28.55	2.086317
28.56667	2.098524
28.58333	2.113856
28.6	2.122742
28.61667	2.119324
28.63333	2.111219
28.65	2.107899
28.66667	2.109461
28.68333	2.111414
28.7	2.112
28.71667	2.112391
28.73333	2.112098
28.75	2.109364
28.76667	2.101063
28.78333	2.089735
28.8	2.085047
28.81667	2.091981
28.83333	2.103016
28.85	2.109657
28.86667	2.11161
28.88333	2.110145
28.9	2.108973
28.91667	2.112684
28.93333	2.117371
28.95	2.113075
28.96667	2.101356
28.98333	2.096473
29	2.103504
29.01667	2.112
29.03333	2.113075
29.05	2.110731
29.06667	2.114637
29.08333	2.12577
29.1	2.134852
29.11667	2.137782
29.13333	2.139344
29.15	2.140614
29.16667	2.140418
29.18333	2.1412
29.2	2.144032
29.21667	2.1412
29.23333	2.135047
29.25	2.13534
29.26667	2.143348
29.28333	2.148621
29.3	2.147352
29.31667	2.148426
29.33333	2.15741
29.35	2.168543
29.36667	2.174989
29.38333	2.176649
29.4	2.178406
29.41667	2.181727
29.43333	2.186317
29.45	2.192371
29.46667	2.194129
29.48333	2.186024
29.5	2.176356
29.51667	2.178016
29.53333	2.187977
29.55	2.194715
29.56667	2.200477
29.58333	2.213465
29.6	2.23202
29.61667	2.244129
29.63333	2.245203
29.65	2.236024
29.66667	2.219325
29.68333	2.203895
29.7	2.199305
29.71667	2.20575
29.73333	2.213953
29.75	2.219617
29.76667	2.227039
29.78333	2.236805
29.8	2.243543
29.81667	2.246571
29.83333	2.246473
29.85	2.242664
29.86667	2.236903
29.88333	2.235242
29.9	2.236805
29.91667	2.235242
29.93333	2.232703
29.95	2.236414
29.96667	2.245301
29.98333	2.249012
30	2.247938
30.01667	2.249403
30.03333	2.256531
30.05	2.262586
30.06667	2.259754
30.08333	2.252625
30.1	2.247449
30.11667	2.247645
30.13333	2.251356
30.15	2.257215
30.16667	2.264735
30.18333	2.274403
30.2	2.285731
30.21667	2.296278
30.23333	2.298035
30.25	2.292469
30.26667	2.292762
30.28333	2.303797
30.3	2.312879
30.31667	2.311024
30.33333	2.306824
30.35	2.311121
30.36667	2.319618
30.38333	2.32577
30.4	2.326844
30.41667	2.322449
30.43333	2.317078
30.45	2.317078
30.46667	2.324793
30.48333	2.336707
30.5	2.345692
30.51667	2.347743
30.53333	2.34657
30.55	2.349403
30.56667	2.355946
30.58333	2.358973
30.6	2.360145
30.61667	2.361121
30.63333	2.360438
30.65	2.362782
30.66667	2.376649
30.68333	2.395887
30.7	2.402918
30.71667	2.394129
30.73333	2.383387
30.75	2.377137
30.76667	2.369813
30.78333	2.359657
30.8	2.356043
30.81667	2.36327
30.83333	2.372742
30.85	2.377039
30.86667	2.380555
30.88333	2.386707
30.9	2.388074
30.91667	2.379969
30.93333	2.372742
30.95	2.374696
30.96667	2.379871
30.98333	2.382313
31	2.384266
31.01667	2.389051
31.03333	2.390418
31.05	2.380555
31.06667	2.36659
31.08333	2.362391
31.1	2.375672
31.11667	2.396082
31.13333	2.408289
31.15	2.410633
31.16667	2.408387
31.18333	2.405653
31.2	2.405067
31.21667	2.407117
31.23333	2.40741
31.25	2.405848
31.26667	2.408582
31.28333	2.413465
31.3	2.411219
31.31667	2.403992
31.33333	2.405262
31.35	2.417176
31.36667	2.426942
31.38333	2.426063
31.4	2.416395
31.41667	2.405164
31.43333	2.397938
31.45	2.400672
31.46667	2.415906
31.48333	2.438465
31.5	2.457215
31.51667	2.462098
31.53333	2.451356
31.55	2.435438
31.56667	2.431239
31.58333	2.442078
31.6	2.451063
31.61667	2.446766
31.63333	2.436121
31.65	2.436121
31.66667	2.446766
31.68333	2.456336
31.7	2.459363
31.71667	2.461903
31.73333	2.468836
31.75	2.476746
31.76667	2.478797
31.78333	2.475672
31.8	2.47245
31.81667	2.470887
31.83333	2.469032
31.85	2.46825
31.86667	2.470887
31.88333	2.475184
31.9	2.475281
31.91667	2.467762
31.93333	2.461024
31.95	2.46825
31.96667	2.486707
31.98333	2.500477
32	2.506922
32.01667	2.511024
32.03333	2.512586
32.05	2.507801
32.06667	2.499598
32.08333	2.495496
32.1	2.500379
32.11667	2.512098
32.13333	2.521082
32.15	2.520985
32.16667	2.516492
32.18333	2.516785
32.2	2.522156
32.21667	2.527821
32.23333	2.537293
32.25	2.54745
32.26667	2.55077
32.28333	2.544422
32.3	2.537196
32.31667	2.53407
32.33333	2.532117
32.35	2.529481
32.36667	2.534754
32.38333	2.548719
32.4	2.558973
32.41667	2.556727
32.43333	2.550868
32.45	2.554578
32.46667	2.567567
32.48333	2.577528
32.5	2.58202
32.51667	2.584656
32.53333	2.585047
32.55	2.582899
32.56667	2.580653
32.58333	2.578992
32.6	2.577625
32.61667	2.5787
32.63333	2.581922
32.65	2.58075
32.66667	2.573914
32.68333	2.565516
32.7	2.559657
32.71667	2.558778
32.73333	2.563367
32.75	2.56952
32.76667	2.575379
32.78333	2.578211
32.8	2.582606
32.81667	2.590223
32.83333	2.594129
32.85	2.589442
32.86667	2.581532
32.88333	2.58075
32.9	2.587196
32.91667	2.597254
32.93333	2.60741
32.95	2.612391
32.96667	2.612
32.98333	2.610828
33	2.611317
33.01667	2.612684
33.03333	2.61327
33.05	2.616102
33.06667	2.622547
33.08333	2.626942
33.1	2.621766
33.11667	2.612782
33.13333	2.613563
33.15	2.628407
33.16667	2.646082
33.18333	2.651453
33.2	2.643836
33.21667	2.634754
33.23333	2.633875
33.25	2.643445
33.26667	2.656239
33.28333	2.664051
33.3	2.664637
33.31667	2.657899
33.33333	2.645106
33.35	2.639051
33.36667	2.650867
33.38333	2.667469
33.4	2.672645
33.41667	2.668543
33.43333	2.669129
33.45	2.670594
33.46667	2.66493
33.48333	2.658485
33.5	2.661512
33.51667	2.675965
33.53333	2.695008
33.55	2.709852
33.56667	2.715809
33.58333	2.711121
33.6	2.698817
33.61667	2.687391
33.63333	2.682508
33.65	2.686414
33.66667	2.690809
33.68333	2.692664
33.7	2.69286
33.71667	2.693738
33.73333	2.698426
33.75	2.708582
33.76667	2.71952
33.78333	2.724012
33.8	2.72245
33.81667	2.718836
33.83333	2.716492
33.85	2.718641
33.86667	2.724305
33.88333	2.728895
33.9	2.725868
33.91667	2.722157
33.93333	2.7245
33.95	2.732215
33.96667	2.738465
33.98333	2.743055
34	2.744129
34.01667	2.740223
34.03333	2.735242
34.05	2.734754
34.06667	2.741786
34.08333	2.749403
34.1	2.747547
34.11667	2.740028
34.13333	2.73993
34.15	2.753016
34.16667	2.768836
34.18333	2.774891
34.2	2.770594
34.21667	2.767469
34.23333	2.775574
34.25	2.791297
34.26667	2.807508
34.28333	2.818738
34.3	2.823231
34.31667	2.820399
34.33333	2.809266
34.35	2.795496
34.36667	2.789051
34.38333	2.793739
34.4	2.803895
34.41667	2.812293
34.43333	2.815614
34.45	2.818348
34.46667	2.82411
34.48333	2.831239
34.5	2.835145
34.51667	2.832996
34.53333	2.825379
34.55	2.818153
34.56667	2.816688
34.58333	2.820399
34.6	2.821864
34.61667	2.814442
34.63333	2.802332
34.65	2.794617
34.66667	2.795301
34.68333	2.804676
34.7	2.819031
34.71667	2.830067
34.73333	2.833582
34.75	2.833485
34.76667	2.834656
34.78333	2.83534
34.8	2.831434
34.81667	2.827039
34.83333	2.829481
34.85	2.839539
34.86667	2.853699
34.88333	2.866493
34.9	2.871864
34.91667	2.866004
34.93333	2.852528
34.95	2.843446
34.96667	2.844129
34.98333	2.847352
35	2.846375
35.01667	2.841981
35.03333	2.841199
35.05	2.843641
35.06667	2.84325
35.08333	2.842176
35.1	2.849891
35.11667	2.866493
35.13333	2.878211
35.15	2.878309
35.16667	2.873231
35.18333	2.872645
35.2	2.879774
35.21667	2.891297
35.23333	2.902918
35.25	2.907117
35.26667	2.903407
35.28333	2.898817
35.3	2.901258
35.31667	2.905848
35.33333	2.90575
35.35	2.902235
35.36667	2.903797
35.38333	2.912586
35.4	2.922645
35.41667	2.925965
35.43333	2.917469
35.45	2.903504
35.46667	2.895008
35.48333	2.896082
35.5	2.900281
35.51667	2.905946
35.53333	2.915223
35.55	2.927918
35.56667	2.937293
35.58333	2.935535
35.6	2.928309
35.61667	2.925672
35.63333	2.930457
35.65	2.938856
35.66667	2.945594
35.68333	2.949989
35.7	2.950672
35.71667	2.947254
35.73333	2.944911
35.75	2.94618
35.76667	2.949403
35.78333	2.9495
35.8	2.944911
35.81667	2.941395
35.83333	2.944911
35.85	2.954774
35.86667	2.963367
35.88333	2.966492
35.9	2.965809
35.91667	2.964051
35.93333	2.959656
35.95	2.951258
35.96667	2.945496
35.98333	2.946961
36	2.955457
36.01667	2.967371
36.03333	2.979578
36.05	2.985535
36.06667	2.984364
36.08333	2.982703
36.1	2.984852
36.11667	2.991395
36.13333	3.001746
36.15	3.012879
36.16667	3.015809
36.18333	3.004188
36.2	2.983387
36.21667	2.970985
36.23333	2.980164
36.25	2.999891
36.26667	3.009949
36.28333	3.004285
36.3	2.996473
36.31667	3.000184
36.33333	3.009461
36.35	3.013074
36.36667	3.009852
36.38333	3.007703
36.4	3.009364
36.41667	3.011903
36.43333	3.012489
36.45	3.010047
36.46667	3.008485
36.48333	3.015028
36.5	3.029383
36.51667	3.040516
36.53333	3.045106
36.55	3.04618
36.56667	3.04618
36.58333	3.042469
36.6	3.034657
36.61667	3.028699
36.63333	3.032703
36.65	3.045399
36.66667	3.057215
36.68333	3.062684
36.7	3.065028
36.71667	3.068738
36.73333	3.068836
36.75	3.060926
36.76667	3.04911
36.78333	3.040614
36.8	3.040614
36.81667	3.051356
36.83333	3.069031
36.85	3.082313
36.86667	3.085145
36.88333	3.08241
36.9	3.077528
36.91667	3.068836
36.93333	3.057801
36.95	3.052528
36.96667	3.054188
36.98333	3.058582
37	3.064832
37.01667	3.073231
37.03333	3.083778
37.05	3.092664
37.06667	3.095496
37.08333	3.09286
37.1	3.090418
37.11667	3.092567
37.13333	3.096375
37.15	3.101942
37.16667	3.109754
37.18333	3.119129
37.2	3.128504
37.21667	3.136903
37.23333	3.140907
37.25	3.138074
37.26667	3.132508
37.28333	3.129969
37.3	3.129578
37.31667	3.126063
37.33333	3.121082
37.35	3.120301
37.36667	3.12577
37.38333	3.133973
37.4	3.141981
37.41667	3.148328
37.43333	3.150574
37.45	3.147743
37.46667	3.143739
37.48333	3.146668
37.5	3.156141
37.51667	3.169227
37.53333	3.178699
37.55	3.177235
37.56667	3.165028
37.58333	3.152332
37.6	3.144618
37.61667	3.137391
37.63333	3.132899
37.65	3.137782
37.66667	3.155946
37.68333	3.177723
37.7	3.192274
37.71667	3.191688
37.73333	3.181727
37.75	3.173524
37.76667	3.170692
37.78333	3.170203
37.8	3.172742
37.81667	3.179286
37.83333	3.18368
37.85	3.181629
37.86667	3.176942
37.88333	3.181239
37.9	3.196082
37.91667	3.21161
37.93333	3.221082
37.95	3.224403
37.96667	3.221473
37.98333	3.213465
38	3.204969
38.01667	3.19784
38.03333	3.189442
38.05	3.180262
38.06667	3.18036
38.08333	3.194031
38.1	3.210633
38.11667	3.220008
38.13333	3.221668
38.15	3.220496
38.16667	3.220789
38.18333	3.221375
38.2	3.218836
38.21667	3.216785
38.23333	3.223426
38.25	3.237391
38.26667	3.245985
38.28333	3.247254
38.3	3.245106
38.31667	3.236219
38.33333	3.21991
38.35	3.208094
38.36667	3.208582
38.38333	3.218739
38.4	3.233094
38.41667	3.244813
38.43333	3.248621
38.45	3.245985
38.46667	3.244715
38.48333	3.248719
38.5	3.25282
38.51667	3.253309
38.53333	3.254969
38.55	3.263563
38.56667	3.27909
38.58333	3.291785
38.6	3.296278
38.61667	3.293641
38.63333	3.288661
38.65	3.28407
38.66667	3.278602
38.68333	3.269813
38.7	3.261707
38.71667	3.262684
38.73333	3.277528
38.75	3.295594
38.76667	3.305555
38.78333	3.30243
38.8	3.294617
38.81667	3.294129
38.83333	3.298621
38.85	3.301844
38.86667	3.305067
38.88333	3.313172
38.9	3.31786
38.91667	3.310145
38.93333	3.297352
38.95	3.293348
38.96667	3.301258
38.98333	3.313367
39	3.321473
39.01667	3.324696
39.03333	3.326844
39.05	3.331239
39.06667	3.340321
39.08333	3.357996
39.1	3.379871
39.11667	3.394129
39.13333	3.391492
39.15	3.381141
39.16667	3.380457
39.18333	3.396863
39.2	3.422157
39.21667	3.446375
39.23333	3.463953
39.25	3.4745
39.26667	3.477821
39.28333	3.482606
39.3	3.502528
39.31667	3.540614
39.33333	3.582118
39.35	3.615711
39.36667	3.639832
39.38333	3.65907
39.4	3.679286
39.41667	3.705262
39.43333	3.729774
39.45	3.745887
39.46667	3.759168
39.48333	3.781532
39.5	3.814442
39.51667	3.853504
39.53333	3.891492
39.55	3.926063
39.56667	3.957606
39.58333	3.98827
39.6	4.019618
39.61667	4.050574
39.63333	4.078504
39.65	4.10409
39.66667	4.134559
39.68333	4.173426
39.7	4.21659
39.71667	4.259754
39.73333	4.300086
39.75	4.339637
39.76667	4.381629
39.78333	4.42284
39.8	4.455945
39.81667	4.482508
39.83333	4.512684
39.85	4.553602
39.86667	4.601551
39.88333	4.647547
39.9	4.687586
39.91667	4.72284
39.93333	4.756238
39.95	4.787977
39.96667	4.819324
39.98333	4.853504
40	4.894129
40.01667	4.941102
40.03333	4.990125
40.05	5.033289
40.06667	5.067079
40.08333	5.096278
40.1	5.126356
40.11667	5.160731
40.13333	5.200477
40.15	5.24911
40.16667	5.30741
40.18333	5.373328
40.2	5.44325
40.21667	5.513172
40.23333	5.5787
40.25	5.638465
40.26667	5.693348
40.28333	5.74159
40.3	5.784266
40.31667	5.824305
40.33333	5.864832
40.35	5.906434
40.36667	5.947938
40.38333	5.988758
40.4	6.0245
40.41667	6.050282
40.43333	6.070692
40.45	6.094617
40.46667	6.132899
40.48333	6.18661
40.5	6.246278
40.51667	6.297645
40.53333	6.338953
40.55	6.379969
40.56667	6.430457
40.58333	6.493543
40.6	6.574988
40.61667	6.678016
40.63333	6.793543
40.65	6.912196
40.66667	7.026844
40.68333	7.12538
40.7	7.191396
40.71667	7.214442
40.73333	7.19872
40.75	7.153114
40.76667	7.08661
40.78333	7.012488
40.8	6.941883
40.81667	6.881629
40.83333	6.833485
40.85	6.80116
40.86667	6.788367
40.88333	6.785829
40.9	6.784949
40.91667	6.782996
40.93333	6.779774
40.95	6.776453
40.96667	6.774305
40.98333	6.776453
41	6.783484
41.01667	6.79491
41.03333	6.810535
41.05	6.830848
41.06667	6.855165
41.08333	6.879285
41.1	6.899012
41.11667	6.910926
41.13333	6.917078
41.15	6.923817
41.16667	6.938367
41.18333	6.957606
41.2	6.977137
41.21667	6.994422
41.23333	7.008875
41.25	7.0245
41.26667	7.043055
41.28333	7.062391
41.3	7.079969
41.31667	7.100965
41.33333	7.124501
41.35	7.140517
41.36667	7.147353
41.38333	7.157704
41.4	7.18036
41.41667	7.209853
41.43333	7.236318
41.45	7.251845
41.46667	7.262197
41.48333	7.27997
41.5	7.309072
41.51667	7.340907
41.53333	7.36415
41.55	7.378603
41.56667	7.39413
41.58333	7.412196
41.6	7.426552
41.61667	7.436903
41.63333	7.449111
41.65	7.465419
41.66667	7.482606
41.68333	7.500673
41.7	7.523134
41.71667	7.546181
41.73333	7.567275
41.75	7.58788
41.76667	7.606337
41.78333	7.616493
41.8	7.620399
41.81667	7.625282
41.83333	7.634169
41.85	7.645106
41.86667	7.65624
41.88333	7.668837
41.9	7.68749
41.91667	7.704091
41.93333	7.70995
41.95	7.709853
41.96667	7.716689
41.98333	7.731728
42	7.745009
42.01667	7.754091
42.03333	7.764735
42.05	7.776747
42.06667	7.783974
42.08333	7.789345
42.1	7.796669
42.11667	7.80663
42.13333	7.816591
42.15	7.826552
42.16667	7.838368
42.18333	7.847646
42.2	7.852821
42.21667	7.856142
42.23333	7.860048
42.25	7.866298
42.26667	7.874403
42.28333	7.882118
42.3	7.885927
42.31667	7.886024
42.33333	7.884852
42.35	7.883876
42.36667	7.887099
42.38333	7.897645
42.4	7.909364
42.41667	7.919618
42.43333	7.930458
42.45	7.942079
42.46667	7.946376
42.48333	7.944618
42.5	7.944032
42.51667	7.948232
42.53333	7.952528
42.55	7.953505
42.56667	7.954286
42.58333	7.958974
42.6	7.967372
42.61667	7.975478
42.63333	7.976845
42.65	7.97079
42.66667	7.964931
42.68333	7.966395
42.7	7.975478
42.71667	7.986415
42.73333	7.995399
42.75	8.001943
42.76667	8.005458
42.78333	8.008583
42.8	8.010243
42.81667	8.002431
42.83333	7.982509
42.85	7.959559
42.86667	7.943251
42.88333	7.927821
42.9	7.908388
42.91667	7.884852
42.93333	7.865321
42.95	7.856142
42.96667	7.860829
42.98333	7.880751
43	7.91454
43.01667	7.952431
43.03333	7.982509
43.05	8.003115
43.06667	8.023329
43.08333	8.042372
43.1	8.050673
43.11667	8.04247
43.13333	8.018544
43.15	7.974989
43.16667	7.900575
43.18333	7.786122
43.2	7.632997
43.21667	7.446474
43.23333	7.22997
43.25	6.988954
43.26667	6.734656
43.28333	6.481141
43.3	6.236609
43.31667	6.00282
43.33333	5.786024
43.35	5.589832
43.36667	5.410438
43.38333	5.235926
43.4	5.057801
43.41667	4.883289
43.43333	4.72284
43.45	4.573817
43.46667	4.426942
43.48333	4.282899
43.5	4.147059
43.51667	4.020106
43.53333	3.896961
43.55	3.778114
43.56667	3.665028
43.58333	3.555653
43.6	3.446571
43.61667	3.33827
43.63333	3.23495
43.65	3.134461
43.66667	3.03368
43.68333	2.932117
43.7	2.832606
43.71667	2.739149
43.73333	2.652332
43.75	2.567664
43.76667	2.48075
43.78333	2.391004
43.8	2.30243
43.81667	2.218836
43.83333	2.144032
43.85	2.077528
43.86667	2.011903
43.88333	1.940125
43.9	1.866981
43.91667	1.800086
43.93333	1.740711
43.95	1.680067
43.96667	1.611512
43.98333	1.544227
44	1.490711
44.01667	1.444813
44.03333	1.391395
44.05	1.327625
44.06667	1.265907
44.08333	1.21161
44.1	1.159364
44.11667	1.107996
44.13333	1.060535
44.15	1.020399
44.16667	0.9876839
44.18333	0.9610237
44.2	0.9338753
44.21667	0.8992073
44.23333	0.8607308
44.25	0.8297737
44.26667	0.8065315
44.28333	0.7817268
44.3	0.7497932
44.31667	0.7167854
44.33333	0.6892464
44.35	0.667469
44.36667	0.6479378
44.38333	0.627137
44.4	0.6064339
44.41667	0.5852425
44.43333	0.5689338
44.45	0.5596565
44.46667	0.554969
44.48333	0.5470589
44.5	0.5331917
44.51667	0.5168831
44.53333	0.5027229
44.55	0.492469
44.56667	0.480262
44.58333	0.4578987
44.6	0.4253792
44.61667	0.3952034
44.63333	0.3763557
44.65	0.3681526
44.66667	0.3614143
44.68333	0.3492073
44.7	0.3323128
44.71667	0.311219
44.73333	0.2886604
44.75	0.2668831
44.76667	0.2479378
44.78333	0.2272346
44.8	0.2032112
44.81667	0.1824104
44.83333	0.1729378
44.85	0.1678596
44.86667	0.1558479
44.88333	0.133387
44.9	0.1057503
44.91667	0.07850418
44.93333	0.05809402
44.95	0.04862137
44.96667	0.04510574
44.98333	0.03973465
45	0.03045731
45.01667	0.01932449
45.03333	0.007996368
45.05	-0.002550506
45.06667	-0.01280441
45.08333	-0.02452316
45.1	-0.03663254
45.11667	-0.04610519
45.13333	-0.05382004
45.15	-0.06475754
45.16667	-0.07735519
45.18333	-0.08721848
45.2	-0.09805832
45.21667	-0.1151482
45.23333	-0.1316521
45.25	-0.1391716
45.26667	-0.13507
45.28333	-0.1258903
45.3	-0.1202263
45.31667	-0.1227653
45.33333	-0.1328239
45.35	-0.1446404
45.36667	-0.1525505
45.38333	-0.154113
45.4	-0.1567497
45.41667	-0.16007
45.43333	-0.1583122
45.45	-0.1551872
45.46667	-0.1594841
45.48333	-0.1686638
45.5	-0.1735466
45.51667	-0.1750114
45.53333	-0.179113
45.55	-0.1829216
45.56667	-0.1818474
45.58333	-0.1796013
45.6	-0.1840935
45.61667	-0.1967888
45.63333	-0.2078239
45.65	-0.2132927
45.66667	-0.213195
45.68333	-0.2121208
45.7	-0.2110466
45.71667	-0.210363
45.73333	-0.2124138
45.75	-0.2208122
45.76667	-0.2324333
45.78333	-0.2373161
45.8	-0.232238
45.81667	-0.2260857
45.83333	-0.2268669
45.85	-0.2287224
45.86667	-0.2251091
45.88333	-0.2214958
45.9	-0.2264763
45.91667	-0.2408318
45.93333	-0.2522575
45.95	-0.2548943
45.96667	-0.2518669
45.98333	-0.2507927
46	-0.2521599
46.01667	-0.2508903
46.03333	-0.2454216
46.05	-0.2454216
46.06667	-0.257238
46.08333	-0.2737419
46.1	-0.2813591
46.11667	-0.2768669
46.13333	-0.2643669
46.15	-0.2525505
46.16667	-0.245031
46.18333	-0.2454216
46.2	-0.251281
46.21667	-0.2582146
46.23333	-0.2621208
46.25	-0.2626091
46.26667	-0.2604607
46.28333	-0.2590935
46.3	-0.2596794
46.31667	-0.2623161
46.33333	-0.2677849
46.35	-0.2770622
46.36667	-0.2851677
46.38333	-0.2878044
46.4	-0.2858513
46.41667	-0.2820427
46.43333	-0.2790154
46.45	-0.27882
46.46667	-0.27882
46.48333	-0.2776482
46.5	-0.2766716
46.51667	-0.2796013
46.53333	-0.2815544
46.55	-0.279406
46.56667	-0.2792107
46.58333	-0.2858513
46.6	-0.2943474
46.61667	-0.2983513
46.63333	-0.2987419
46.65	-0.3007927
46.66667	-0.3074333
46.68333	-0.3164177
46.7	-0.3216911
46.71667	-0.3216911
46.73333	-0.316906
46.75	-0.3080193
46.76667	-0.3014763
46.78333	-0.3015739
46.8	-0.3061638
46.81667	-0.307824
46.83333	-0.3064567
46.85	-0.3062615
46.86667	-0.3066521
46.88333	-0.3025505
46.9	-0.2941521
46.91667	-0.2851677
46.93333	-0.275695
46.95	-0.2659294
46.96667	-0.260363
46.98333	-0.2630974
47	-0.275695
47.01667	-0.2890739
47.03333	-0.2948357
47.05	-0.2965935
47.06667	-0.3032341
47.08333	-0.3108513
47.1	-0.3111443
47.11667	-0.3092888
47.13333	-0.3110466
47.15	-0.3102654
47.16667	-0.2990349
47.18333	-0.2839958
47.2	-0.2782341
47.21667	-0.2854607
47.23333	-0.3005974
47.25	-0.3135857
47.26667	-0.3175896
47.28333	-0.3122185
47.3	-0.3019646
47.31667	-0.2966911
47.33333	-0.2991325
47.35	-0.3027458
47.36667	-0.29757
47.38333	-0.2883903
47.4	-0.2870232
47.41667	-0.2930779
47.43333	-0.2960075
47.45	-0.2932732
47.46667	-0.2941521
47.48333	-0.3027458
47.5	-0.3087029
47.51667	-0.3047966
47.53333	-0.2938591
47.55	-0.2834099
47.56667	-0.2784294
47.58333	-0.2815544
47.6	-0.2940544
47.61667	-0.3105583
47.63333	-0.3208122
47.65	-0.3158318
47.66667	-0.301281
47.68333	-0.291613
47.7	-0.295031
47.71667	-0.3060661
47.73333	-0.3144646
47.75	-0.3127068
47.76667	-0.304113
47.78333	-0.2958122
47.8	-0.2894646
47.81667	-0.2863396
47.83333	-0.2872185
47.85	-0.2906365
47.86667	-0.2942497
47.88333	-0.2990349
47.9	-0.306945
47.91667	-0.3141716
47.93333	-0.3133903
47.95	-0.3076286
47.96667	-0.3020622
47.98333	-0.2986442
48	-0.2958122
48.01667	-0.2970818
48.03333	-0.3026482
48.05	-0.3130974
48.06667	-0.3254997
48.08333	-0.3341911
48.1	-0.3326286
48.11667	-0.3186638
48.13333	-0.3007927
48.15	-0.2937614
48.16667	-0.2977653
48.18333	-0.3042107
48.2	-0.3052849
48.21667	-0.3037224
48.23333	-0.3010857
48.25	-0.2936638
48.26667	-0.2834099
48.28333	-0.2813591
48.3	-0.2905388
48.31667	-0.2995232
48.33333	-0.3003044
48.35	-0.2994255
48.36667	-0.3066521
48.38333	-0.3156365
48.4	-0.3113396
48.41667	-0.2953239
48.43333	-0.2812614
48.45	-0.2785271
48.46667	-0.2797966
48.48333	-0.2760857
48.5	-0.2688591
48.51667	-0.2671013
48.53333	-0.27257
48.55	-0.2840935
48.56667	-0.2958122
48.58333	-0.3004997
48.6	-0.2948357
48.61667	-0.2846794
48.63333	-0.2785271
48.65	-0.27882
48.66667	-0.2824333
48.68333	-0.2862419
48.7	-0.2902458
48.71667	-0.2935661
48.73333	-0.2934685
48.75	-0.2871208
48.76667	-0.2814568
48.78333	-0.282824
48.8	-0.2885857
48.81667	-0.2921013
48.83333	-0.2914177
48.85	-0.2915154
48.86667	-0.2912224
48.88333	-0.288488
48.9	-0.2839958
48.91667	-0.2826286
48.93333	-0.2834099
48.95	-0.2832146
48.96667	-0.2829216
48.98333	-0.2859489
49	-0.2904411
49.01667	-0.2941521
49.03333	-0.2988396
49.05	-0.3042107
49.06667	-0.3050896
49.08333	-0.2995232
49.1	-0.294445
49.11667	-0.2911247
49.13333	-0.2848747
49.15	-0.2774529
49.16667	-0.2768669
49.18333	-0.2813591
49.2	-0.2820427
49.21667	-0.2772575
49.23333	-0.2689568
49.25	-0.2594841
49.26667	-0.2518669
49.28333	-0.2533318
49.3	-0.2638786
49.31667	-0.2757927
49.33333	-0.2804802
49.35	-0.2772575
49.36667	-0.2698357
49.38333	-0.2629997
49.4	-0.2585075
49.41667	-0.2599724
49.43333	-0.2704216
49.45	-0.2849724
49.46667	-0.2942497
49.48333	-0.2967888
49.5	-0.2948357
49.51667	-0.2893669
49.53333	-0.2812614
49.55	-0.2758904
49.56667	-0.2729607
49.58333	-0.2723747
49.6	-0.2801872
49.61667	-0.292199
49.63333	-0.2966911
49.65	-0.2889763
49.66667	-0.2797966
49.68333	-0.2755974
49.7	-0.2718864
49.71667	-0.269445
49.73333	-0.2723747
49.75	-0.2769646
49.76667	-0.2777458
49.78333	-0.2741325
49.8	-0.2678825
49.81667	-0.2652458
49.83333	-0.2671013
49.85	-0.2713005
49.86667	-0.2730583
49.88333	-0.269738
49.9	-0.2670036
49.91667	-0.2615349
49.93333	-0.250695
49.95	-0.2418083
49.96667	-0.2423943
49.98333	-0.2492302
50	-0.2532341
50.01667	-0.2533318
50.03333	-0.2552849
50.05	-0.2601677
50.06667	-0.2653435
50.08333	-0.2704216
50.1	-0.2776482
50.11667	-0.2826286
50.13333	-0.2820427
50.15	-0.2777458
50.16667	-0.2764763
50.18333	-0.2780388
50.2	-0.276574
50.21667	-0.2722771
50.23333	-0.2722771
50.25	-0.275695
50.26667	-0.2774529
50.28333	-0.2798943
50.3	-0.2834099
50.31667	-0.2836052
50.33333	-0.2797966
50.35	-0.2783318
50.36667	-0.2824333
50.38333	-0.2874138
50.4	-0.2894646
50.41667	-0.288195
50.43333	-0.2820427
50.45	-0.2724724
50.46667	-0.2629021
50.48333	-0.2596794
50.5	-0.2619255
50.51667	-0.2651482
50.53333	-0.2665153
50.55	-0.2692497
50.56667	-0.2796013
50.58333	-0.2921013
50.6	-0.2988396
50.61667	-0.2962028
50.63333	-0.2918083
50.65	-0.2895622
50.66667	-0.2865349
50.68333	-0.2800896
50.7	-0.2730583
50.71667	-0.2722771
50.73333	-0.2778435
50.75	-0.2826286
50.76667	-0.2818474
50.78333	-0.2768669
50.8	-0.2736443
50.81667	-0.276281
50.83333	-0.2808708
50.85	-0.2824333
50.86667	-0.2790154
50.88333	-0.2711052
50.9	-0.2632927
50.91667	-0.2582146
50.93333	-0.2557732
50.95	-0.2568474
50.96667	-0.266613
50.98333	-0.2849724
51	-0.3000115
51.01667	-0.3062615
51.03333	-0.307238
51.05	-0.304406
51.06667	-0.2939568
51.08333	-0.2817497
51.1	-0.2789177
51.11667	-0.2868279
51.13333	-0.294445
51.15	-0.2924919
51.16667	-0.2832146
51.18333	-0.2757927
51.2	-0.2755974
51.21667	-0.2771599
51.23333	-0.2773552
51.25	-0.2775505
51.26667	-0.2817497
51.28333	-0.2904411
51.3	-0.2990349
51.31667	-0.2992302
51.33333	-0.2868279
51.35	-0.2690544
51.36667	-0.2629997
51.38333	-0.2726677
51.4	-0.2874138
51.41667	-0.2968864
51.43333	-0.3015739
51.45	-0.304113
51.46667	-0.3022575
51.48333	-0.2972771
51.5	-0.2954216
51.51667	-0.2986442
51.53333	-0.3027458
51.55	-0.2994255
51.56667	-0.2901482
51.58333	-0.2836052
51.6	-0.2879021
51.61667	-0.2995232
51.63333	-0.3073357
51.65	-0.3094841
51.66667	-0.3081169
51.68333	-0.3029411
51.7	-0.2951286
51.71667	-0.2901482
51.73333	-0.2868279
51.75	-0.281945
51.76667	-0.2803825
51.78333	-0.2869255
51.8	-0.2921013
51.81667	-0.2879021
51.83333	-0.2821403
51.85	-0.2840935
51.86667	-0.2888786
51.88333	-0.2911247
51.9	-0.2931755
51.91667	-0.2958122
51.93333	-0.2936638
51.95	-0.2860466
51.96667	-0.2799919
51.98333	-0.2774529
52	-0.2760857
52.01667	-0.2771599
52.03333	-0.2835075
52.05	-0.2911247
52.06667	-0.2943474
52.08333	-0.2942497
52.1	-0.2899528
52.11667	-0.2806755
52.13333	-0.2688591
52.15	-0.2624138
52.16667	-0.2659294
52.18333	-0.2789177
52.2	-0.2914177
52.21667	-0.2976677
52.23333	-0.2982536
52.25	-0.2937614
52.26667	-0.2842888
52.28333	-0.2738396
52.3	-0.2692497
52.31667	-0.2686638
52.33333	-0.2636833
52.35	-0.2530388
52.36667	-0.2452263
52.38333	-0.24757
52.4	-0.2590935
52.41667	-0.2701286
52.43333	-0.2747185
52.45	-0.2715935
52.46667	-0.2656364
52.48333	-0.2618279
52.5	-0.2626091
52.51667	-0.2670036
52.53333	-0.2732536
52.55	-0.27882
52.56667	-0.2817497
52.58333	-0.2835075
52.6	-0.2876091
52.61667	-0.2935661
52.63333	-0.2935661
52.65	-0.2855583
52.66667	-0.2768669
52.68333	-0.2743278
52.7	-0.2783318
52.71667	-0.2834099
52.73333	-0.2823357
52.75	-0.273156
52.76667	-0.263781
52.78333	-0.2615349
52.8	-0.2629997
52.81667	-0.2618279
52.83333	-0.2599724
52.85	-0.2647575
52.86667	-0.2778435
52.88333	-0.2894646
52.9	-0.2914177
52.91667	-0.2832146
52.93333	-0.2749138
52.95	-0.2752067
52.96667	-0.2818474
52.98333	-0.2855583
53	-0.2826286
53.01667	-0.2782341
53.03333	-0.2798943
53.05	-0.2860466
53.06667	-0.2869255
53.08333	-0.2804802
53.1	-0.2734489
53.11667	-0.2715935
53.13333	-0.2727653
53.15	-0.2719841
53.16667	-0.2712029
53.18333	-0.2702263
53.2	-0.2681755
53.21667	-0.2654411
53.23333	-0.2619255
53.25	-0.2580193
53.26667	-0.2557732
53.28333	-0.2602654
53.3	-0.2705193
53.31667	-0.2799919
53.33333	-0.282531
53.35	-0.2816521
53.36667	-0.2816521
53.38333	-0.2800896
53.4	-0.2742302
53.41667	-0.2658318
53.43333	-0.260656
53.45	-0.2587028
53.46667	-0.2567497
53.48333	-0.2552849
53.5	-0.2590935
53.51667	-0.2713005
53.53333	-0.2849724
53.55	-0.2883903
53.56667	-0.2821403
53.58333	-0.2758904
53.6	-0.2751091
53.61667	-0.2806755
53.63333	-0.2883903
53.65	-0.2917107
53.66667	-0.2862419
53.68333	-0.2792107
53.7	-0.2772575
53.71667	-0.2784294
53.73333	-0.275988
53.75	-0.2705193
53.76667	-0.2684685
53.78333	-0.2699333
53.8	-0.2736443
53.81667	-0.2777458
53.83333	-0.2823357
53.85	-0.2869255
53.86667	-0.2885857
53.88333	-0.2873161
53.9	-0.285656
53.91667	-0.2867302
53.93333	-0.2888786
53.95	-0.2879997
53.96667	-0.282824
53.98333	-0.2771599
54	-0.2779411
54.01667	-0.2833122
54.03333	-0.2840935
54.05	-0.2761833
54.06667	-0.266613
54.08333	-0.26632
54.1	-0.2719841
54.11667	-0.2740349
54.13333	-0.2685661
54.15	-0.2640739
54.16667	-0.2652458
54.18333	-0.2730583
54.2	-0.2823357
54.21667	-0.2804802
54.23333	-0.2647575
54.25	-0.2480583
54.26667	-0.2423943
54.28333	-0.2459099
54.3	-0.2535271
54.31667	-0.2636833
54.33333	-0.2732536
54.35	-0.2764763
54.36667	-0.2737419
54.38333	-0.2706169
54.4	-0.270031
54.41667	-0.2705193
54.43333	-0.2705193
54.45	-0.2712029
54.46667	-0.2737419
54.48333	-0.272863
54.5	-0.2649528
54.51667	-0.2523552
54.53333	-0.2439568
54.55	-0.2440544
54.56667	-0.247863
54.58333	-0.2497185
54.6	-0.2523552
54.61667	-0.2578239
54.63333	-0.2640739
54.65	-0.2696404
54.66667	-0.2764763
54.68333	-0.2848747
54.7	-0.2925896
54.71667	-0.2941521
54.73333	-0.2880974
54.75	-0.2801872
54.76667	-0.2782341
54.78333	-0.2815544
54.8	-0.2827263
54.81667	-0.2801872
54.83333	-0.279113
54.85	-0.2823357
54.86667	-0.2844841
54.88333	-0.2796013
54.9	-0.2720818
54.91667	-0.2713982
54.93333	-0.276281
54.95	-0.2747185
54.96667	-0.2628044
54.98333	-0.2495232
55	-0.2399528
