"SampleName"	"2. PC-12 wt"
"System Name"	"Alliance 2"
"Sample Set Name"	"DTtV_15052025 GSL new HPLC"
"Date Acquired"	"5/15/2025 3:39:02 PM BST"
"Sample Set Start Date"	"5/15/2025 2:04:31 PM BST"
0	0.0001052856
0.01666667	0.0002731323
0.03333333	0.0007118225
0.05	0.002567291
0.06666667	0.007254791
0.08333333	0.01702042
0.1	0.03489151
0.1166667	0.05774307
0.1333333	0.07873917
0.15	0.08762588
0.1666667	0.08411026
0.1833333	0.07620011
0.2	0.07463761
0.2166667	0.08166885
0.2333333	0.09133682
0.25	0.09914932
0.2666667	0.1072548
0.2833333	0.1124306
0.3	0.1102821
0.3166667	0.1026649
0.3333333	0.1009071
0.35	0.1058876
0.3666667	0.1105751
0.3833333	0.1078407
0.4	0.09924698
0.4166667	0.09075089
0.4333333	0.08655167
0.45	0.08899307
0.4666667	0.09573136
0.4833333	0.1004189
0.5	0.09817276
0.5166667	0.09036026
0.5333333	0.08176651
0.55	0.0768837
0.5666667	0.07590713
0.5833333	0.07903214
0.6	0.08362198
0.6166667	0.08537979
0.6333333	0.08245011
0.65	0.07502823
0.6666667	0.06809463
0.6833333	0.06858291
0.7	0.07512589
0.7166667	0.08235244
0.7333333	0.08547745
0.75	0.08664932
0.7666667	0.08733292
0.7833333	0.08254776
0.8	0.07014541
0.8166667	0.05578995
0.8333333	0.05168838
0.85	0.06243057
0.8666667	0.08108292
0.8833333	0.09231339
0.9	0.09172745
0.9166667	0.08616104
0.9333333	0.08108292
0.95	0.07473526
0.9666667	0.06516495
0.9833333	0.05911026
1	0.06233292
1.016667	0.06887589
1.033333	0.0690712
1.05	0.06330948
1.066667	0.05823135
1.083333	0.05618057
1.1	0.05618057
1.116667	0.06252823
1.133333	0.07395401
1.15	0.08069229
1.166667	0.08039932
1.183333	0.07864151
1.2	0.07981338
1.216667	0.07952042
1.233333	0.07297745
1.25	0.06418838
1.266667	0.06174698
1.283333	0.06096573
1.3	0.05266495
1.316667	0.03957901
1.333333	0.0315712
1.35	0.02717667
1.366667	0.02043838
1.383333	0.01409073
1.4	0.01184464
1.416667	0.01418838
1.433333	0.01975479
1.45	0.02590713
1.466667	0.02444229
1.483333	0.01868057
1.5	0.01633682
1.516667	0.0137001
1.533333	0.007743073
1.55	0.00442276
1.566667	0.008133697
1.583333	0.009500885
1.6	0.002176666
1.616667	-0.008174896
1.633333	-0.01745224
1.65	-0.02301865
1.666667	-0.02145615
1.683333	-0.01266708
1.7	-0.004659271
1.716667	-0.0008506775
1.733333	-0.001631927
1.75	-0.005049896
1.766667	-0.007491303
1.783333	-0.006417084
1.8	-0.003194428
1.816667	0.0008094787
1.833333	0.007254791
1.85	0.01389542
1.866667	0.0152626
1.883333	0.01077042
1.9	0.002957916
1.916667	-0.003975677
1.933333	-0.00573349
1.95	-0.003292084
1.966667	-0.005928802
1.983333	-0.01989365
2	-0.0378624
2.016667	-0.04694443
2.033333	-0.04206162
2.05	-0.03327255
2.066667	-0.03532333
2.083333	-0.05202255
2.1	-0.07389756
2.116667	-0.08786239
2.133333	-0.09381942
2.15	-0.1000694
2.166667	-0.1087608
2.183333	-0.1144249
2.2	-0.1181358
2.216667	-0.1248741
2.233333	-0.1334679
2.25	-0.134835
2.266667	-0.1287804
2.283333	-0.1242882
2.3	-0.1247765
2.316667	-0.125753
2.333333	-0.1224327
2.35	-0.1168663
2.366667	-0.1117882
2.383333	-0.1095421
2.4	-0.1133507
2.416667	-0.123214
2.433333	-0.1316124
2.45	-0.1269249
2.466667	-0.1116905
2.483333	-0.09713974
2.5	-0.09176864
2.516667	-0.09147568
2.533333	-0.08893661
2.55	-0.08171006
2.566667	-0.06657334
2.583333	-0.04264755
2.6	-0.01501083
2.616667	0.0121376
2.633333	0.04270401
2.65	0.08196183
2.666667	0.1339149
2.683333	0.198954
2.7	0.2800087
2.716667	0.3803993
2.733333	0.5042275
2.75	0.6504189
2.766667	0.8118446
2.783333	0.9757118
2.8	1.132841
2.816667	1.284989
2.833333	1.438895
2.85	1.597977
2.866667	1.758427
2.883333	1.919852
2.9	2.085673
2.916667	2.25579
2.933333	2.427958
2.95	2.59661
2.966667	2.751591
2.983333	2.881767
3	2.990751
3.016667	3.096513
3.033333	3.216532
3.05	3.356473
3.066667	3.516923
3.083333	3.694462
3.1	3.883231
3.116667	4.072782
3.133333	4.249833
3.15	4.406669
3.166667	4.539677
3.183333	4.646122
3.2	4.729618
3.216667	4.805594
3.233333	4.898173
3.25	5.030985
3.266667	5.231083
3.283333	5.564872
3.3	6.15618
3.316667	7.143583
3.333333	8.557841
3.35	10.24944
3.366667	11.94622
3.383333	13.38909
3.4	14.43304
3.416667	15.0721
3.433333	15.51712
3.45	16.64241
3.466667	21.11663
3.483333	34.56214
3.5	64.41761
3.516667	115.2785
3.533333	184.2498
3.55	261.7657
3.566667	337.395
3.583333	404.1254
3.6	457.578
3.616667	493.4167
3.633333	507.3911
3.65	497.842
3.666667	467.6698
3.683333	423.7443
3.7	374.2462
3.716667	325.9063
3.733333	282.6215
3.75	245.7181
3.766667	215.1189
3.783333	190.4719
3.8	171.7388
3.816667	159.2595
3.833333	153.5541
3.85	154.9568
3.866667	162.7607
3.883333	173.6312
3.9	181.2685
3.916667	179.6778
3.933333	167.2943
3.95	146.8864
3.966667	122.175
3.983333	96.31341
4	72.5349
4.016667	53.59105
4.033333	40.22512
4.05	31.33089
4.066667	25.40608
4.083333	21.36165
4.1	18.4721
4.116667	16.24427
4.133333	14.41976
4.15	12.93382
4.166667	11.7803
4.183333	10.92669
4.2	10.32386
4.216667	9.921612
4.233333	9.660381
4.25	9.475908
4.266667	9.32542
4.283333	9.190069
4.3	9.057841
4.316667	8.926201
4.333333	8.815361
4.35	8.767217
4.366667	8.816923
4.383333	8.969267
4.4	9.199248
4.416667	9.46292
4.433333	9.717803
4.45	9.921319
4.466667	10.02171
4.483333	9.969561
4.5	9.751593
4.516667	9.400811
4.533333	8.964482
4.55	8.47874
4.566667	7.971611
4.583333	7.463896
4.6	6.966142
4.616667	6.484891
4.633333	6.03206
4.65	5.62747
4.666667	5.297782
4.683333	5.072001
4.7	4.972001
4.716667	4.995341
4.733333	5.105985
4.75	5.243192
4.766667	5.348856
4.783333	5.386454
4.8	5.355497
4.816667	5.282645
4.833333	5.203251
4.85	5.133134
4.866667	5.066337
4.883333	4.992997
4.9	4.913798
4.916667	4.85081
4.933333	4.836649
4.95	4.896415
4.966667	5.027177
4.983333	5.196805
5	5.357352
5.016667	5.470536
5.033333	5.521903
5.05	5.512919
5.066667	5.45452
5.083333	5.371024
5.1	5.296415
5.116667	5.25247
5.133333	5.236161
5.15	5.228153
5.166667	5.211161
5.183333	5.17161
5.2	5.104716
5.216667	5.007548
5.233333	4.874345
5.25	4.702665
5.266667	4.506083
5.283333	4.307255
5.3	4.116239
5.316667	3.93245
5.333333	3.758134
5.35	3.596317
5.366667	3.451102
5.383333	3.327763
5.4	3.230009
5.416667	3.161356
5.433333	3.13245
5.45	3.15081
5.466667	3.207841
5.483333	3.278934
5.5	3.340751
5.516667	3.376688
5.533333	3.380888
5.55	3.36077
5.566667	3.338114
5.583333	3.343485
5.6	3.403251
5.616667	3.52288
5.633333	3.685673
5.65	3.853153
5.666667	3.976688
5.683333	4.016044
5.7	3.97161
5.716667	3.876395
5.733333	3.767997
5.75	3.670243
5.766667	3.604618
5.783333	3.586845
5.8	3.611747
5.816667	3.658231
5.833333	3.713114
5.85	3.774052
5.866667	3.84329
5.883333	3.91829
5.9	3.986259
5.916667	4.030692
5.933333	4.038212
5.95	4.00745
5.966667	3.943778
5.983333	3.853348
6	3.735087
6.016667	3.586649
6.033333	3.415555
6.05	3.238114
6.066667	3.070438
6.083333	2.919755
6.1	2.790263
6.116667	2.683329
6.133333	2.597294
6.15	2.529521
6.166667	2.478739
6.183333	2.444755
6.2	2.420048
6.216667	2.393974
6.233333	2.360868
6.25	2.321024
6.266667	2.275223
6.283333	2.223173
6.3	2.170731
6.316667	2.123954
6.333333	2.082157
6.35	2.042411
6.366667	2.005204
6.383333	1.974149
6.4	1.946708
6.416667	1.916532
6.433333	1.885087
6.45	1.85872
6.466667	1.836942
6.483333	1.819169
6.5	1.811063
6.516667	1.819267
6.533333	1.835673
6.55	1.853837
6.566667	1.872782
6.583333	1.888993
6.6	1.901395
6.616667	1.908036
6.633333	1.908329
6.65	1.89495
6.666667	1.864091
6.683333	1.821513
6.7	1.775419
6.716667	1.731083
6.733333	1.688602
6.75	1.644266
6.766667	1.598759
6.783333	1.555399
6.8	1.512431
6.816667	1.467704
6.833333	1.427372
6.85	1.40413
6.866667	1.403446
6.883333	1.425126
6.9	1.468095
6.916667	1.528251
6.933333	1.601005
6.95	1.676298
6.966667	1.743583
6.983333	1.795145
7	1.8262
7.016667	1.834599
7.033333	1.820731
7.05	1.7887
7.066667	1.745731
7.083333	1.699345
7.1	1.655497
7.116667	1.61829
7.133333	1.589384
7.15	1.563895
7.166667	1.536649
7.183333	1.511161
7.2	1.495536
7.216667	1.487528
7.233333	1.481278
7.25	1.471903
7.266667	1.456669
7.283333	1.437528
7.3	1.422587
7.316667	1.416044
7.333333	1.420731
7.35	1.441141
7.366667	1.478348
7.383333	1.531376
7.4	1.605692
7.416667	1.70452
7.433333	1.813798
7.45	1.906083
7.466667	1.962821
7.483333	1.975809
7.5	1.946903
7.516667	1.884696
7.533333	1.806278
7.55	1.723466
7.566667	1.638212
7.583333	1.547977
7.6	1.456083
7.616667	1.37288
7.633333	1.305204
7.65	1.255009
7.666667	1.21995
7.683333	1.192606
7.7	1.163212
7.716667	1.135966
7.733333	1.122684
7.75	1.12122
7.766667	1.120243
7.783333	1.116337
7.8	1.11663
7.816667	1.124638
7.833333	1.133036
7.85	1.137919
7.866667	1.144852
7.883333	1.16038
7.9	1.177079
7.916667	1.185087
7.933333	1.185673
7.95	1.1887
7.966667	1.196122
7.983333	1.203934
8	1.209892
8.016667	1.213602
8.033333	1.217606
8.05	1.223759
8.066667	1.233622
8.083333	1.248856
8.1	1.276395
8.116667	1.317997
8.133333	1.366923
8.15	1.420536
8.166667	1.480692
8.183333	1.55081
8.2	1.635282
8.216667	1.742704
8.233333	1.876493
8.25	2.027372
8.266667	2.177079
8.283333	2.30618
8.3	2.404911
8.316667	2.470243
8.333333	2.492802
8.35	2.4637
8.366667	2.386845
8.383333	2.278348
8.4	2.152274
8.416667	2.016337
8.433333	1.876591
8.45	1.743095
8.466667	1.621903
8.483333	1.514677
8.5	1.422977
8.516667	1.351005
8.533333	1.296122
8.55	1.24788
8.566667	1.201395
8.583333	1.158036
8.6	1.122196
8.616667	1.094071
8.633333	1.070927
8.65	1.051395
8.666667	1.038993
8.683333	1.033524
8.7	1.026591
8.716667	1.01536
8.733333	1.005204
8.75	0.9972938
8.766667	0.9886025
8.783333	0.9766884
8.8	0.967411
8.816667	0.9601845
8.833333	0.9551064
8.85	0.9534462
8.866667	0.9557899
8.883333	0.9581337
8.9	0.9608681
8.916667	0.9698524
8.933333	0.9885048
8.95	1.01038
8.966667	1.033817
8.983333	1.061356
9	1.097977
9.016667	1.143095
9.033333	1.197489
9.05	1.265751
9.066667	1.354227
9.083333	1.46497
9.1	1.595048
9.116667	1.737821
9.133333	1.888993
9.15	2.042997
9.166667	2.187919
9.183333	2.307645
9.2	2.389579
9.216667	2.426493
9.233333	2.422391
9.25	2.382352
9.266667	2.309403
9.283333	2.203153
9.3	2.069852
9.316667	1.927665
9.333333	1.796122
9.35	1.675516
9.366667	1.55579
9.383333	1.435575
9.4	1.323856
9.416667	1.227079
9.433333	1.147489
9.45	1.085868
9.466667	1.034013
9.483333	0.9814736
9.5	0.9296181
9.516667	0.8845009
9.533333	0.8460243
9.55	0.8144814
9.566667	0.7907509
9.583333	0.7732704
9.6	0.7574501
9.616667	0.7401649
9.633333	0.7226845
9.65	0.7096962
9.666667	0.7004188
9.683333	0.6943642
9.7	0.6944618
9.716667	0.7071571
9.733333	0.7303993
9.75	0.7517861
9.766667	0.7685829
9.783333	0.7889931
9.8	0.8199501
9.816667	0.8622352
9.833333	0.914579
9.85	0.9715126
9.866667	1.023075
9.883333	1.060868
9.9	1.084306
9.916667	1.09661
9.933333	1.1012
9.95	1.09827
9.966667	1.085575
9.983333	1.061161
10	1.026005
10.01667	0.9760048
10.03333	0.9092079
10.05	0.8379189
10.06667	0.7758095
10.08333	0.7217079
10.1	0.6663368
10.11667	0.6122352
10.13333	0.5710243
10.15	0.5444618
10.16667	0.5249306
10.18333	0.5050087
10.2	0.4863563
10.21667	0.4710243
10.23333	0.4644814
10.25	0.4663368
10.26667	0.467411
10.28333	0.461454
10.3	0.451786
10.31667	0.442704
10.33333	0.4344032
10.35	0.4287392
10.36667	0.4272743
10.38333	0.4271767
10.4	0.4261025
10.41667	0.4250282
10.43333	0.427079
10.45	0.4311806
10.46667	0.433622
10.48333	0.4321571
10.5	0.4269814
10.51667	0.4196571
10.53333	0.411747
10.55	0.4053017
10.56667	0.401786
10.58333	0.3999306
10.6	0.3970009
10.61667	0.3940712
10.63333	0.3890907
10.65	0.3798134
10.66667	0.3682899
10.68333	0.3622352
10.7	0.3678017
10.71667	0.3784462
10.73333	0.3853798
10.75	0.3872353
10.76667	0.3873329
10.78333	0.386454
10.8	0.3850868
10.81667	0.3852821
10.83333	0.3851845
10.85	0.3847938
10.86667	0.3845009
10.88333	0.3842079
10.9	0.3806923
10.91667	0.3748329
10.93333	0.3697548
10.95	0.3658485
10.96667	0.3609657
10.98333	0.3546181
11	0.3535438
11.01667	0.3590126
11.03333	0.3603798
11.05	0.3522743
11.06667	0.3439735
11.08333	0.3434853
11.1	0.346415
11.11667	0.3452431
11.13333	0.3417274
11.15	0.3416298
11.16667	0.3459267
11.18333	0.352079
11.2	0.3619423
11.21667	0.3703407
11.23333	0.3721962
11.25	0.3694618
11.26667	0.3693642
11.28333	0.3734657
11.3	0.3780556
11.31667	0.3842079
11.33333	0.3949501
11.35	0.4060829
11.36667	0.4113564
11.38333	0.4107704
11.4	0.4077431
11.41667	0.4027626
11.43333	0.3943642
11.45	0.3857704
11.46667	0.3824501
11.48333	0.3897743
11.5	0.402372
11.51667	0.4073524
11.53333	0.4034462
11.55	0.3984657
11.56667	0.4008095
11.58333	0.4047157
11.6	0.4090126
11.61667	0.4159462
11.63333	0.4259071
11.65	0.4329384
11.66667	0.4328407
11.68333	0.4306923
11.7	0.4340126
11.71667	0.4438759
11.73333	0.4589149
11.75	0.4837196
11.76667	0.5195595
11.78333	0.5622352
11.8	0.6061805
11.81667	0.645829
11.83333	0.6791298
11.85	0.7087196
11.86667	0.7409462
11.88333	0.7801064
11.9	0.8243446
11.91667	0.8693641
11.93333	0.9082314
11.95	0.9422157
11.96667	0.9729775
11.98333	0.9945595
12	0.9984657
12.01667	0.9854774
12.03333	0.9667274
12.05	0.9515907
12.06667	0.9346962
12.08333	0.9091102
12.1	0.8760048
12.11667	0.8447548
12.13333	0.8222939
12.15	0.8045204
12.16667	0.7868446
12.18333	0.7644814
12.2	0.7405556
12.21667	0.717704
12.23333	0.6945595
12.25	0.6695595
12.26667	0.6541298
12.28333	0.6565712
12.3	0.6662391
12.31667	0.6662391
12.33333	0.6550087
12.35	0.6422157
12.36667	0.6331337
12.38333	0.6257118
12.4	0.6229774
12.41667	0.6251259
12.43333	0.6295204
12.45	0.6359657
12.46667	0.6445595
12.48333	0.6496376
12.5	0.6434852
12.51667	0.6373329
12.53333	0.6383095
12.55	0.6425087
12.56667	0.6419228
12.58333	0.6365517
12.6	0.6285439
12.61667	0.6235634
12.63333	0.6252235
12.65	0.6305946
12.66667	0.6303993
12.68333	0.6234657
12.7	0.6138954
12.71667	0.6042274
12.73333	0.6013954
12.75	0.6108681
12.76667	0.6252235
12.78333	0.6298134
12.8	0.6207314
12.81667	0.6132118
12.83333	0.6173134
12.85	0.6248329
12.86667	0.6238564
12.88333	0.6143837
12.9	0.6059853
12.91667	0.6081337
12.93333	0.6181923
12.95	0.6262978
12.96667	0.6262978
12.98333	0.6229774
13	0.624247
13.01667	0.6288368
13.03333	0.6281532
13.05	0.6223915
13.06667	0.6196572
13.08333	0.6256142
13.1	0.6374305
13.11667	0.6530555
13.13333	0.671122
13.15	0.6913368
13.16667	0.7106727
13.18333	0.7284462
13.2	0.7468055
13.21667	0.7689735
13.23333	0.8012978
13.25	0.8454384
13.26667	0.8941689
13.28333	0.942704
13.3	0.9923134
13.31667	1.042313
13.33333	1.082938
13.35	1.11038
13.36667	1.132059
13.38333	1.155399
13.4	1.173173
13.41667	1.175516
13.43333	1.162821
13.45	1.147099
13.46667	1.138993
13.48333	1.135282
13.5	1.126688
13.51667	1.108329
13.53333	1.084306
13.55	1.060477
13.56667	1.038602
13.58333	1.017118
13.6	0.9963173
13.61667	0.9809853
13.63333	0.9766884
13.65	0.9775673
13.66667	0.9798134
13.68333	0.9844033
13.7	0.9903603
13.71667	0.9963173
13.73333	0.9979774
13.75	0.9978798
13.76667	0.9998329
13.78333	1.002665
13.8	0.9983681
13.81667	0.983036
13.83333	0.9623329
13.85	0.9459267
13.86667	0.9310829
13.88333	0.9135048
13.9	0.8934852
13.91667	0.8803017
13.93333	0.877079
13.95	0.8775673
13.96667	0.8775673
13.98333	0.8845986
14	0.9100868
14.01667	0.9558876
14.03333	1.020145
14.05	1.103837
14.06667	1.213017
14.08333	1.349149
14.1	1.516727
14.11667	1.730106
14.13333	1.997196
14.15	2.310575
14.16667	2.654325
14.18333	3.02288
14.2	3.416825
14.21667	3.832255
14.23333	4.256181
14.25	4.66702
14.26667	5.044462
14.28333	5.371024
14.3	5.635087
14.31667	5.832059
14.33333	5.962333
14.35	6.021806
14.36667	6.00286
14.38333	5.908525
14.4	5.7512
14.41667	5.544755
14.43333	5.293681
14.45	5.004618
14.46667	4.700614
14.48333	4.403251
14.5	4.115751
14.51667	3.830106
14.53333	3.546708
14.55	3.278153
14.56667	3.02913
14.58333	2.799735
14.6	2.588798
14.61667	2.396024
14.63333	2.221903
14.65	2.067118
14.66667	1.932841
14.68333	1.816435
14.7	1.712723
14.71667	1.613895
14.73333	1.516044
14.75	1.429325
14.76667	1.365458
14.78333	1.318681
14.8	1.27327
14.81667	1.223954
14.83333	1.177958
14.85	1.144071
14.86667	1.119462
14.88333	1.094364
14.9	1.068583
14.91667	1.047196
14.93333	1.034696
14.95	1.021903
14.96667	1.00247
14.98333	0.9848915
15	0.9769813
15.01667	0.973954
15.03333	0.9640907
15.05	0.9480751
15.06667	0.9360634
15.08333	0.9341103
15.1	0.9366493
15.11667	0.9404579
15.13333	0.9451454
15.15	0.9481727
15.16667	0.9475868
15.18333	0.9425087
15.2	0.9359657
15.21667	0.933329
15.23333	0.9350868
15.25	0.9379188
15.26667	0.9374306
15.28333	0.9328407
15.3	0.9269813
15.31667	0.9232704
15.33333	0.9243447
15.35	0.9300087
15.36667	0.9352821
15.38333	0.9356728
15.4	0.9328407
15.41667	0.9310829
15.43333	0.9303017
15.45	0.927372
15.46667	0.9229774
15.48333	0.9210243
15.5	0.9230751
15.51667	0.9269813
15.53333	0.930497
15.55	0.9303017
15.56667	0.9289345
15.58333	0.9303017
15.6	0.93704
15.61667	0.9471962
15.63333	0.9551064
15.65	0.9607704
15.66667	0.964286
15.68333	0.9659462
15.7	0.9661415
15.71667	0.9658486
15.73333	0.9609658
15.75	0.952372
15.76667	0.9498329
15.78333	0.958329
15.8	0.9697548
15.81667	0.9723915
15.83333	0.9670204
15.85	0.9597939
15.86667	0.9556923
15.88333	0.9529579
15.9	0.9484657
15.91667	0.9448525
15.93333	0.948661
15.95	0.9604775
15.96667	0.9726845
15.98333	0.9759071
16	0.9721962
16.01667	0.9703407
16.03333	0.9776649
16.05	0.9925087
16.06667	1.010185
16.08333	1.031571
16.1	1.05286
16.11667	1.077763
16.13333	1.107841
16.15	1.149345
16.16667	1.206864
16.18333	1.283036
16.2	1.387528
16.21667	1.536161
16.23333	1.740849
16.25	1.998954
16.26667	2.299442
16.28333	2.638505
16.3	3.022001
16.31667	3.461259
16.33333	3.958134
16.35	4.493778
16.36667	5.041239
16.38333	5.583134
16.4	6.108622
16.41667	6.601591
16.43333	7.043876
16.45	7.422197
16.46667	7.728837
16.48333	7.959013
16.5	8.111357
16.51667	8.192411
16.53333	8.214482
16.55	8.198466
16.56667	8.168974
16.58333	8.147685
16.6	8.143974
16.61667	8.16292
16.63333	8.212919
16.65	8.311162
16.66667	8.470146
16.68333	8.688505
16.7	8.941338
16.71667	9.19417
16.73333	9.423369
16.75	9.620928
16.76667	9.776885
16.78333	9.874932
16.8	9.905206
16.81667	9.862823
16.83333	9.745635
16.85	9.5596
16.86667	9.325909
16.88333	9.071611
16.9	8.81751
16.91667	8.579521
16.93333	8.365068
16.95	8.176298
16.96667	8.012041
16.98333	7.874053
17	7.758037
17.01667	7.654814
17.03333	7.550224
17.05	7.428349
17.06667	7.27913
17.08333	7.100712
17.1	6.888212
17.11667	6.634501
17.13333	6.342118
17.15	6.023563
17.16667	5.688212
17.18333	5.339481
17.2	4.980595
17.21667	4.621806
17.23333	4.278837
17.25	3.964774
17.26667	3.675224
17.28333	3.398173
17.3	3.133915
17.31667	2.899149
17.33333	2.701005
17.35	2.530888
17.36667	2.376884
17.38333	2.234306
17.4	2.107157
17.41667	1.994267
17.43333	1.89202
17.45	1.800028
17.46667	1.72161
17.48333	1.659013
17.5	1.607841
17.51667	1.559891
17.53333	1.509208
17.55	1.457548
17.56667	1.410575
17.58333	1.370731
17.6	1.341434
17.61667	1.328349
17.63333	1.328446
17.65	1.331571
17.66667	1.330888
17.68333	1.32747
17.7	1.318583
17.71667	1.302177
17.73333	1.291825
17.75	1.304618
17.76667	1.342216
17.78333	1.387821
17.8	1.430888
17.81667	1.47747
17.83333	1.537333
17.85	1.608817
17.86667	1.686942
17.88333	1.772977
17.9	1.868583
17.91667	1.966727
17.93333	2.062528
17.95	2.158231
17.96667	2.249247
17.98333	2.322098
18	2.370438
18.01667	2.394559
18.03333	2.398661
18.05	2.385282
18.06667	2.360282
18.08333	2.325028
18.1	2.276103
18.11667	2.213603
18.13333	2.141825
18.15	2.064188
18.16667	1.989677
18.18333	1.92786
18.2	1.875321
18.21667	1.821317
18.23333	1.763016
18.25	1.711063
18.26667	1.670829
18.28333	1.637528
18.3	1.606864
18.31667	1.580399
18.33333	1.554618
18.35	1.52747
18.36667	1.501786
18.38333	1.483231
18.4	1.472391
18.41667	1.46995
18.43333	1.474638
18.45	1.482645
18.46667	1.484013
18.48333	1.478251
18.5	1.477665
18.51667	1.488993
18.53333	1.506962
18.55	1.527177
18.56667	1.546024
18.58333	1.560673
18.6	1.571513
18.61667	1.58079
18.63333	1.595145
18.65	1.615849
18.66667	1.635673
18.68333	1.650907
18.7	1.658915
18.71667	1.659599
18.73333	1.656278
18.75	1.653837
18.76667	1.652763
18.78333	1.649247
18.8	1.642509
18.81667	1.631962
18.83333	1.613895
18.85	1.584892
18.86667	1.550516
18.88333	1.51995
18.9	1.50247
18.91667	1.498173
18.93333	1.496122
18.95	1.48831
18.96667	1.476688
18.98333	1.470438
19	1.465653
19.01667	1.457743
19.03333	1.450321
19.05	1.445634
19.06667	1.438212
19.08333	1.427177
19.1	1.42122
19.11667	1.426786
19.13333	1.436747
19.15	1.438212
19.16667	1.427665
19.18333	1.413993
19.2	1.408622
19.21667	1.412333
19.23333	1.414677
19.25	1.40872
19.26667	1.40081
19.28333	1.401493
19.3	1.408622
19.31667	1.411454
19.33333	1.404618
19.35	1.394852
19.36667	1.394364
19.38333	1.405204
19.4	1.416727
19.41667	1.423856
19.43333	1.429911
19.45	1.436747
19.46667	1.440067
19.48333	1.434696
19.5	1.426981
19.51667	1.426981
19.53333	1.437528
19.55	1.452079
19.56667	1.464481
19.58333	1.476786
19.6	1.492313
19.61667	1.507548
19.63333	1.520145
19.65	1.533524
19.66667	1.547392
19.68333	1.56077
19.7	1.57288
19.71667	1.584696
19.73333	1.601981
19.75	1.621024
19.76667	1.631571
19.78333	1.639579
19.8	1.66038
19.81667	1.693485
19.83333	1.723954
19.85	1.743778
19.86667	1.759013
19.88333	1.780692
19.9	1.810673
19.91667	1.846903
19.93333	1.883329
19.95	1.920145
19.96667	1.965458
19.98333	2.019462
20	2.071317
20.01667	2.10911
20.03333	2.132157
20.05	2.147001
20.06667	2.158427
20.08333	2.167313
20.1	2.174345
20.11667	2.177665
20.13333	2.172782
20.15	2.155497
20.16667	2.125712
20.18333	2.089677
20.2	2.053544
20.21667	2.022977
20.23333	2.000224
20.25	1.978935
20.26667	1.955009
20.28333	1.930497
20.3	1.911747
20.31667	1.897977
20.33333	1.883622
20.35	1.866825
20.36667	1.849247
20.38333	1.84036
20.4	1.842899
20.41667	1.848856
20.43333	1.845927
20.45	1.83411
20.46667	1.82327
20.48333	1.818681
20.5	1.819657
20.51667	1.826884
20.53333	1.841532
20.55	1.861845
20.56667	1.881962
20.58333	1.903446
20.6	1.936356
20.61667	1.994657
20.63333	2.085966
20.65	2.215848
20.66667	2.392313
20.68333	2.625419
20.7	2.916142
20.71667	3.260868
20.73333	3.668681
20.75	4.151591
20.76667	4.702958
20.78333	5.295341
20.8	5.900028
20.81667	6.500516
20.83333	7.081181
20.85	7.625224
20.86667	8.105497
20.88333	8.500127
20.9	8.795341
20.91667	8.987333
20.93333	9.077471
20.95	9.078154
20.96667	9.010576
20.98333	8.89622
21	8.74954
21.01667	8.58958
21.03333	8.45208
21.05	8.374736
21.06667	8.385966
21.08333	8.48997
21.1	8.684209
21.11667	8.966337
21.13333	9.331377
21.15	9.766631
21.16667	10.24554
21.18333	10.74446
21.2	11.23558
21.21667	11.68675
21.23333	12.06634
21.25	12.35384
21.26667	12.53675
21.28333	12.60667
21.3	12.56038
21.31667	12.40413
21.33333	12.14954
21.35	11.81067
21.36667	11.41233
21.38333	10.98411
21.4	10.54046
21.41667	10.08919
21.43333	9.641631
21.45	9.21419
21.46667	8.813896
21.48333	8.443779
21.5	8.10081
21.51667	7.775615
21.53333	7.465556
21.55	7.172295
21.56667	6.888114
21.58333	6.596708
21.6	6.294267
21.61667	5.987919
21.63333	5.68245
21.65	5.381376
21.66667	5.090653
21.68333	4.815263
21.7	4.556376
21.71667	4.315263
21.73333	4.094657
21.75	3.89163
21.76667	3.699247
21.78333	3.520927
21.8	3.367216
21.81667	3.239579
21.83333	3.128056
21.85	3.02288
21.86667	2.920634
21.88333	2.826005
21.9	2.741239
21.91667	2.660966
21.93333	2.575028
21.95	2.488798
21.96667	2.414481
21.98333	2.356083
22	2.308622
22.01667	2.262333
22.03333	2.209892
22.05	2.153348
22.06667	2.10872
22.08333	2.083915
22.1	2.06497
22.11667	2.045048
22.13333	2.035673
22.15	2.044755
22.16667	2.061161
22.18333	2.075712
22.2	2.093095
22.21667	2.124442
22.23333	2.17122
22.25	2.231376
22.26667	2.298759
22.28333	2.370438
22.3	2.447294
22.31667	2.527567
22.33333	2.601981
22.35	2.664091
22.36667	2.716532
22.38333	2.761259
22.4	2.797782
22.41667	2.82913
22.43333	2.854618
22.45	2.866435
22.46667	2.856571
22.48333	2.830595
22.5	2.797001
22.51667	2.759403
22.53333	2.7137
22.55	2.661747
22.56667	2.609891
22.58333	2.563602
22.6	2.520731
22.61667	2.473759
22.63333	2.422294
22.65	2.370243
22.66667	2.322782
22.68333	2.283915
22.7	2.254716
22.71667	2.236747
22.73333	2.22913
22.75	2.235477
22.76667	2.251298
22.78333	2.272196
22.8	2.298563
22.81667	2.334599
22.83333	2.387723
22.85	2.46536
22.86667	2.567899
22.88333	2.688407
22.9	2.823173
22.91667	2.973368
22.93333	3.145243
22.95	3.347587
22.96667	3.591727
22.98333	3.89827
23	4.295438
23.01667	4.818583
23.03333	5.496512
23.05	6.35413
23.06667	7.418096
23.08333	8.715166
23.1	10.26028
23.11667	12.04856
23.13333	14.05081
23.15	16.22493
23.16667	18.51546
23.18333	20.84749
23.2	23.13001
23.21667	25.2721
23.23333	27.18704
23.25	28.78616
23.26667	29.99495
23.28333	30.7721
23.3	31.10188
23.31667	30.99309
23.33333	30.47591
23.35	29.60052
23.36667	28.41936
23.38333	26.99534
23.4	25.4095
23.41667	23.73567
23.43333	22.02971
23.45	20.33196
23.46667	18.68294
23.48333	17.11722
23.5	15.65433
23.51667	14.29993
23.53333	13.05599
23.55	11.92317
23.56667	10.89466
23.58333	9.959405
23.6	9.108819
23.61667	8.342412
23.63333	7.656181
23.65	7.041532
23.66667	6.488798
23.68333	5.993094
23.7	5.546415
23.71667	5.142118
23.73333	4.78206
23.75	4.474638
23.76667	4.221317
23.78333	4.013309
23.8	3.843974
23.81667	3.711942
23.83333	3.611454
23.85	3.535477
23.86667	3.486552
23.88333	3.471806
23.9	3.48577
23.91667	3.510575
23.93333	3.536259
23.95	3.562235
23.96667	3.591434
23.98333	3.619169
24	3.637431
24.01667	3.646513
24.03333	3.648466
24.05	3.642509
24.06667	3.627177
24.08333	3.604423
24.1	3.584306
24.11667	3.569071
24.13333	3.549149
24.15	3.517509
24.16667	3.482938
24.18333	3.456669
24.2	3.445829
24.21667	3.450223
24.23333	3.470243
24.25	3.506864
24.26667	3.56038
24.28333	3.625419
24.3	3.693485
24.31667	3.770243
24.33333	3.866435
24.35	3.982646
24.36667	4.101396
24.38333	4.20452
24.4	4.287919
24.41667	4.356181
24.43333	4.408427
24.45	4.439188
24.46667	4.444755
24.48333	4.426298
24.5	4.391825
24.51667	4.355302
24.53333	4.331669
24.55	4.325419
24.56667	4.335868
24.58333	4.384989
24.6	4.519462
24.61667	4.787821
24.63333	5.229911
24.65	5.888017
24.66667	6.818583
24.68333	8.088017
24.7	9.763018
24.71667	11.90247
24.73333	14.54612
24.75	17.70989
24.76667	21.38137
24.78333	25.51243
24.8	30.02346
24.81667	34.8054
24.83333	39.71478
24.85	44.57005
24.86667	49.16282
24.88333	53.28929
24.9	56.77943
24.91667	59.51273
24.93333	61.40911
24.95	62.42278
24.96667	62.54954
24.98333	61.83343
25	60.35149
25.01667	58.20325
25.03333	55.51663
25.05	52.43685
25.06667	49.10345
25.08333	45.63684
25.1	42.13899
25.11667	38.69427
25.13333	35.35784
25.15	32.17474
25.16667	29.18958
25.18333	26.42942
25.2	23.89641
25.21667	21.57835
25.23333	19.46048
25.25	17.52942
25.26667	15.77698
25.28333	14.20032
25.3	12.79036
25.31667	11.52776
25.33333	10.3969
25.35	9.392119
25.36667	8.509209
25.38333	7.740556
25.4	7.066337
25.41667	6.467411
25.43333	5.937821
25.45	5.477177
25.46667	5.084306
25.48333	4.758329
25.5	4.496415
25.51667	4.29622
25.53333	4.155497
25.55	4.077274
25.56667	4.060868
25.58333	4.099833
25.6	4.180204
25.61667	4.29036
25.63333	4.429521
25.65	4.606083
25.66667	4.823466
25.68333	5.070731
25.7	5.33245
25.71667	5.592899
25.73333	5.84329
25.75	6.077763
25.76667	6.287724
25.78333	6.464872
25.8	6.61038
25.81667	6.730302
25.83333	6.822978
25.85	6.879813
25.86667	6.89788
25.88333	6.882255
25.9	6.838603
25.91667	6.769364
25.93333	6.684892
25.95	6.59827
25.96667	6.513212
25.98333	6.424052
26	6.324833
26.01667	6.209013
26.03333	6.077274
26.05	5.937528
26.06667	5.797587
26.08333	5.65413
26.1	5.50286
26.11667	5.343778
26.13333	5.180985
26.15	5.01663
26.16667	4.849931
26.18333	4.679325
26.2	4.503544
26.21667	4.32786
26.23333	4.160966
26.25	4.009892
26.26667	3.872782
26.28333	3.745927
26.3	3.629325
26.31667	3.528348
26.33333	3.445145
26.35	3.38245
26.36667	3.342899
26.38333	3.33411
26.4	3.368583
26.41667	3.468778
26.43333	3.660575
26.45	3.962528
26.46667	4.394364
26.48333	4.984013
26.5	5.768095
26.51667	6.776884
26.53333	8.032646
26.55	9.549346
26.56667	11.32464
26.58333	13.3346
26.6	15.53919
26.61667	17.88606
26.63333	20.31438
26.65	22.74573
26.66667	25.08411
26.68333	27.22805
26.7	29.08655
26.71667	30.59065
26.73333	31.68636
26.75	32.33284
26.76667	32.51399
26.78333	32.25061
26.8	31.5888
26.81667	30.58528
26.83333	29.29944
26.85	27.79622
26.86667	26.13948
26.88333	24.39407
26.9	22.62395
26.91667	20.88099
26.93333	19.19094
26.95	17.572
26.96667	16.04886
26.98333	14.63938
27	13.34398
27.01667	12.15296
27.03333	11.06165
27.05	10.06439
27.06667	9.156671
27.08333	8.340849
27.1	7.619365
27.11667	6.989091
27.13333	6.442899
27.15	5.971806
27.16667	5.563212
27.18333	5.207353
27.2	4.902958
27.21667	4.659892
27.23333	4.482646
27.25	4.366044
27.26667	4.303837
27.28333	4.300126
27.3	4.359891
27.31667	4.48411
27.33333	4.6762
27.35	4.941044
27.36667	5.277177
27.38333	5.674442
27.4	6.116239
27.41667	6.585087
27.43333	7.065751
27.45	7.551885
27.46667	8.033427
27.48333	8.487432
27.5	8.897099
27.51667	9.252374
27.53333	9.534796
27.55	9.722784
27.56667	9.813702
27.58333	9.818193
27.6	9.736749
27.61667	9.567412
27.63333	9.317511
27.65	9.001005
27.66667	8.637041
27.68333	8.244951
27.7	7.840556
27.71667	7.429912
27.73333	7.025614
27.75	6.636161
27.76667	6.256083
27.78333	5.88206
27.8	5.528934
27.81667	5.217899
27.83333	4.953349
27.85	4.722196
27.86667	4.511064
27.88333	4.320438
27.9	4.153446
27.91667	4.01038
27.93333	3.886356
27.95	3.778251
27.96667	3.686063
27.98333	3.612919
28	3.555985
28.01667	3.506278
28.03333	3.45872
28.05	3.415653
28.06667	3.380497
28.08333	3.349931
28.1	3.321903
28.11667	3.293095
28.13333	3.256669
28.15	3.210477
28.16667	3.161454
28.18333	3.119364
28.2	3.084989
28.21667	3.052665
28.23333	3.024833
28.25	3.011454
28.26667	3.02161
28.28333	3.052567
28.3	3.091044
28.31667	3.131278
28.33333	3.18372
28.35	3.261259
28.36667	3.363114
28.38333	3.479228
28.4	3.604032
28.41667	3.73997
28.43333	3.891239
28.45	4.063602
28.46667	4.252567
28.48333	4.440458
28.5	4.61165
28.51667	4.769071
28.53333	4.926103
28.55	5.085185
28.56667	5.237235
28.58333	5.380204
28.6	5.522977
28.61667	5.672001
28.63333	5.824833
28.65	5.974735
28.66667	6.122294
28.68333	6.27161
28.7	6.417606
28.71667	6.541532
28.73333	6.629813
28.75	6.688895
28.76667	6.727469
28.78333	6.741532
28.8	6.717021
28.81667	6.648759
28.83333	6.540946
28.85	6.404618
28.86667	6.254423
28.88333	6.098563
28.9	5.936942
28.91667	5.76995
28.93333	5.603739
28.95	5.4512
28.96667	5.321219
28.98333	5.21497
29	5.129423
29.01667	5.061649
29.03333	5.01038
29.05	4.972098
29.06667	4.942509
29.08333	4.919364
29.1	4.905302
29.11667	4.899638
29.13333	4.897977
29.15	4.897099
29.16667	4.895438
29.18333	4.894364
29.2	4.90247
29.21667	4.926493
29.23333	4.967313
29.25	5.018583
29.26667	5.080888
29.28333	5.162724
29.3	5.267118
29.31667	5.382841
29.33333	5.49495
29.35	5.597001
29.36667	5.689384
29.38333	5.7679
29.4	5.8262
29.41667	5.859501
29.43333	5.864481
29.45	5.839481
29.46667	5.788016
29.48333	5.711552
29.5	5.607255
29.51667	5.47454
29.53333	5.320829
29.55	5.159208
29.56667	4.999735
29.58333	4.845829
29.6	4.696708
29.61667	4.555399
29.63333	4.425419
29.65	4.30618
29.66667	4.193192
29.68333	4.080302
29.7	3.961161
29.71667	3.837138
29.73333	3.72161
29.75	3.626102
29.76667	3.549149
29.78333	3.478935
29.8	3.411649
29.81667	3.352958
29.83333	3.305692
29.85	3.264481
29.86667	3.224052
29.88333	3.186942
29.9	3.160477
29.91667	3.14163
29.93333	3.126298
29.95	3.113993
29.96667	3.110868
29.98333	3.113895
30	3.113798
30.01667	3.109794
30.03333	3.110087
30.05	3.116923
30.06667	3.125516
30.08333	3.134501
30.1	3.144755
30.11667	3.155985
30.13333	3.164091
30.15	3.16663
30.16667	3.168485
30.18333	3.180595
30.2	3.207938
30.21667	3.242899
30.23333	3.280399
30.25	3.325419
30.26667	3.386063
30.28333	3.470634
30.3	3.586161
30.31667	3.738602
30.33333	3.926395
30.35	4.150907
30.36667	4.411747
30.38333	4.709403
30.4	5.041825
30.41667	5.399247
30.43333	5.763114
30.45	6.114481
30.46667	6.439384
30.48333	6.729032
30.5	6.97786
30.51667	7.180595
30.53333	7.327275
30.55	7.408037
30.56667	7.417607
30.58333	7.358916
30.6	7.2429
30.61667	7.084306
30.63333	6.891239
30.65	6.666434
30.66667	6.420634
30.68333	6.166825
30.7	5.914872
30.71667	5.660966
30.73333	5.40286
30.75	5.152567
30.76667	4.928056
30.78333	4.734891
30.8	4.566923
30.81667	4.415849
30.83333	4.275907
30.85	4.144657
30.86667	4.025028
30.88333	3.923661
30.9	3.841825
30.91667	3.773466
30.93333	3.711552
30.95	3.654618
30.96667	3.606376
30.98333	3.565849
31	3.524345
31.01667	3.476395
31.03333	3.42913
31.05	3.390946
31.06667	3.358915
31.08333	3.323563
31.1	3.284501
31.11667	3.247684
31.13333	3.217118
31.15	3.193485
31.16667	3.174052
31.18333	3.158817
31.2	3.143192
31.21667	3.124735
31.23333	3.103153
31.25	3.089384
31.26667	3.088017
31.28333	3.096513
31.3	3.108524
31.31667	3.116532
31.33333	3.11868
31.35	3.120341
31.36667	3.126884
31.38333	3.136356
31.4	3.143681
31.41667	3.14661
31.43333	3.146122
31.45	3.145341
31.46667	3.147099
31.48333	3.151103
31.5	3.155009
31.51667	3.161747
31.53333	3.170048
31.55	3.173368
31.56667	3.168388
31.58333	3.156376
31.6	3.139872
31.61667	3.128544
31.63333	3.127567
31.65	3.132548
31.66667	3.129716
31.68333	3.113407
31.7	3.092216
31.71667	3.082255
31.73333	3.083915
31.75	3.086552
31.76667	3.083427
31.78333	3.077567
31.8	3.072196
31.81667	3.068485
31.83333	3.066727
31.85	3.06536
31.86667	3.067118
31.88333	3.073368
31.9	3.087626
31.91667	3.103544
31.93333	3.113407
31.95	3.113212
31.96667	3.110184
31.98333	3.117509
32	3.140849
32.01667	3.176102
32.03333	3.213212
32.05	3.249735
32.06667	3.287626
32.08333	3.330692
32.1	3.385868
32.11667	3.455106
32.13333	3.528934
32.15	3.597196
32.16667	3.656571
32.18333	3.70911
32.2	3.75247
32.21667	3.788114
32.23333	3.820634
32.25	3.847294
32.26667	3.863114
32.28333	3.865751
32.3	3.857646
32.31667	3.835966
32.33333	3.798173
32.35	3.750419
32.36667	3.699149
32.38333	3.644852
32.4	3.5887
32.41667	3.538505
32.43333	3.501102
32.45	3.473759
32.46667	3.452567
32.48333	3.433427
32.5	3.415067
32.51667	3.394755
32.53333	3.372489
32.55	3.346415
32.56667	3.31956
32.58333	3.296708
32.6	3.279813
32.61667	3.266044
32.63333	3.259501
32.65	3.26204
32.66667	3.27581
32.68333	3.290165
32.7	3.293876
32.71667	3.281181
32.73333	3.257352
32.75	3.235673
32.76667	3.222001
32.78333	3.21536
32.8	3.210087
32.81667	3.203739
32.83333	3.191434
32.85	3.168583
32.86667	3.139677
32.88333	3.116435
32.9	3.102958
32.91667	3.09827
32.93333	3.097587
32.95	3.099442
32.96667	3.095341
32.98333	3.078641
33	3.053349
33.01667	3.034599
33.03333	3.025517
33.05	3.01829
33.06667	3.011161
33.08333	3.006376
33.1	3.005985
33.11667	3.00872
33.13333	3.014481
33.15	3.023368
33.16667	3.031669
33.18333	3.035282
33.2	3.033915
33.21667	3.037235
33.23333	3.052177
33.25	3.071708
33.26667	3.077079
33.28333	3.068778
33.3	3.060087
33.31667	3.060087
33.33333	3.067997
33.35	3.079423
33.36667	3.089091
33.38333	3.093681
33.4	3.091923
33.41667	3.085477
33.43333	3.080692
33.45	3.080985
33.46667	3.082157
33.48333	3.085087
33.5	3.092509
33.51667	3.099052
33.53333	3.098661
33.55	3.09827
33.56667	3.104618
33.58333	3.114677
33.6	3.123661
33.61667	3.133231
33.63333	3.136161
33.65	3.12288
33.66667	3.10247
33.68333	3.090848
33.7	3.093388
33.71667	3.099833
33.73333	3.104032
33.75	3.105985
33.76667	3.107646
33.78333	3.108817
33.8	3.111063
33.81667	3.113798
33.83333	3.113895
33.85	3.111454
33.86667	3.110087
33.88333	3.114774
33.9	3.122489
33.91667	3.128544
33.93333	3.132841
33.95	3.14329
33.96667	3.166825
33.98333	3.197685
34	3.222001
34.01667	3.233622
34.03333	3.238993
34.05	3.246122
34.06667	3.248954
34.08333	3.245536
34.1	3.243485
34.11667	3.248563
34.13333	3.256083
34.15	3.261845
34.16667	3.265849
34.18333	3.267313
34.2	3.262723
34.21667	3.256181
34.23333	3.251688
34.25	3.247391
34.26667	3.238798
34.28333	3.228446
34.3	3.22786
34.31667	3.234794
34.33333	3.232548
34.35	3.214481
34.36667	3.191434
34.38333	3.178349
34.4	3.175224
34.41667	3.172684
34.43333	3.167802
34.45	3.167899
34.46667	3.177177
34.48333	3.186454
34.5	3.182645
34.51667	3.16702
34.53333	3.150419
34.55	3.140165
34.56667	3.139286
34.58333	3.14993
34.6	3.16331
34.61667	3.164579
34.63333	3.156278
34.65	3.153934
34.66667	3.160868
34.68333	3.16663
34.7	3.164286
34.71667	3.158427
34.73333	3.155204
34.75	3.156474
34.76667	3.161356
34.78333	3.162724
34.8	3.155302
34.81667	3.140653
34.83333	3.132548
34.85	3.141434
34.86667	3.166825
34.88333	3.191434
34.9	3.199638
34.91667	3.190458
34.93333	3.179813
34.95	3.176298
34.96667	3.175321
34.98333	3.173954
35	3.176786
35.01667	3.182353
35.03333	3.184501
35.05	3.18245
35.06667	3.180888
35.08333	3.181473
35.1	3.185282
35.11667	3.194852
35.13333	3.201786
35.15	3.199149
35.16667	3.19329
35.18333	3.196024
35.2	3.205302
35.21667	3.209501
35.23333	3.209306
35.25	3.211552
35.26667	3.216923
35.28333	3.222099
35.3	3.225419
35.31667	3.227274
35.33333	3.232059
35.35	3.243388
35.36667	3.254618
35.38333	3.258231
35.4	3.257841
35.41667	3.262431
35.43333	3.271415
35.45	3.279618
35.46667	3.28704
35.48333	3.297782
35.5	3.30745
35.51667	3.311649
35.53333	3.310184
35.55	3.305497
35.56667	3.301591
35.58333	3.300321
35.6	3.299345
35.61667	3.29495
35.63333	3.289091
35.65	3.284013
35.66667	3.281571
35.68333	3.284501
35.7	3.293973
35.71667	3.305009
35.73333	3.306571
35.75	3.294559
35.76667	3.279618
35.78333	3.272782
35.8	3.274833
35.81667	3.271806
35.83333	3.264286
35.85	3.255888
35.86667	3.248661
35.88333	3.241825
35.9	3.238505
35.91667	3.241825
35.93333	3.250224
35.95	3.259892
35.96667	3.267997
35.98333	3.272196
36	3.271806
36.01667	3.26995
36.03333	3.270048
36.05	3.272685
36.06667	3.278934
36.08333	3.287626
36.1	3.296122
36.11667	3.304032
36.13333	3.312724
36.15	3.320438
36.16667	3.318974
36.18333	3.309989
36.2	3.302567
36.21667	3.304911
36.23333	3.31663
36.25	3.328641
36.26667	3.334501
36.28333	3.338114
36.3	3.341337
36.31667	3.335966
36.33333	3.317411
36.35	3.298563
36.36667	3.292313
36.38333	3.293485
36.4	3.292997
36.41667	3.290555
36.43333	3.290946
36.45	3.29661
36.46667	3.306864
36.48333	3.318583
36.5	3.323563
36.51667	3.320243
36.53333	3.314384
36.55	3.315946
36.56667	3.322782
36.58333	3.327079
36.6	3.326102
36.61667	3.320927
36.63333	3.315556
36.65	3.313993
36.66667	3.318388
36.68333	3.321415
36.7	3.323954
36.71667	3.330692
36.73333	3.34163
36.75	3.348759
36.76667	3.349345
36.78333	3.350907
36.8	3.35872
36.81667	3.368973
36.83333	3.37454
36.85	3.378446
36.86667	3.382157
36.88333	3.382255
36.9	3.377177
36.91667	3.369755
36.93333	3.364481
36.95	3.362431
36.96667	3.362431
36.98333	3.363505
37	3.366727
37.01667	3.378056
37.03333	3.392899
37.05	3.401493
37.06667	3.398856
37.08333	3.396024
37.1	3.401493
37.11667	3.411845
37.13333	3.421513
37.15	3.427372
37.16667	3.426591
37.18333	3.422977
37.2	3.424638
37.21667	3.433134
37.23333	3.440067
37.25	3.438309
37.26667	3.431473
37.28333	3.427274
37.3	3.429716
37.31667	3.436747
37.33333	3.441142
37.35	3.436161
37.36667	3.433915
37.38333	3.442509
37.4	3.456767
37.41667	3.465556
37.43333	3.464481
37.45	3.458329
37.46667	3.455888
37.48333	3.460868
37.5	3.467021
37.51667	3.46331
37.53333	3.449735
37.55	3.436356
37.56667	3.434208
37.58333	3.441532
37.6	3.448954
37.61667	3.447782
37.63333	3.442606
37.65	3.447294
37.66667	3.461747
37.68333	3.471708
37.7	3.471122
37.71667	3.47327
37.73333	3.484794
37.75	3.494462
37.76667	3.49456
37.78333	3.491044
37.8	3.489774
37.81667	3.489384
37.83333	3.488993
37.85	3.487235
37.86667	3.481376
37.88333	3.472392
37.9	3.466727
37.91667	3.468583
37.93333	3.47786
37.95	3.490751
37.96667	3.503153
37.98333	3.511845
38	3.515653
38.01667	3.516239
38.03333	3.516532
38.05	3.517704
38.06667	3.516044
38.08333	3.510087
38.1	3.504032
38.11667	3.50413
38.13333	3.511942
38.15	3.518485
38.16667	3.519852
38.18333	3.524247
38.2	3.535282
38.21667	3.542997
38.23333	3.544071
38.25	3.545731
38.26667	3.550614
38.28333	3.550712
38.3	3.546903
38.31667	3.548368
38.33333	3.552958
38.35	3.554032
38.36667	3.552958
38.38333	3.552958
38.4	3.551688
38.41667	3.545146
38.43333	3.538212
38.45	3.53538
38.46667	3.536942
38.48333	3.541337
38.5	3.547099
38.51667	3.550517
38.53333	3.551493
38.55	3.553251
38.56667	3.557157
38.58333	3.562919
38.6	3.569364
38.61667	3.574735
38.63333	3.5762
38.65	3.573075
38.66667	3.570243
38.68333	3.57327
38.7	3.580888
38.71667	3.58743
38.73333	3.588993
38.75	3.584696
38.76667	3.578446
38.78333	3.57747
38.8	3.583036
38.81667	3.589677
38.83333	3.597489
38.85	3.611454
38.86667	3.623075
38.88333	3.625126
38.9	3.618778
38.91667	3.611259
38.93333	3.60247
38.95	3.595536
38.96667	3.596903
38.98333	3.609306
39	3.623759
39.01667	3.631474
39.03333	3.634892
39.05	3.640458
39.06667	3.649735
39.08333	3.660184
39.1	3.669657
39.11667	3.677079
39.13333	3.680399
39.15	3.685673
39.16667	3.698661
39.18333	3.712138
39.2	3.721513
39.21667	3.731864
39.23333	3.751395
39.25	3.776591
39.26667	3.796317
39.28333	3.808329
39.3	3.82161
39.31667	3.839286
39.33333	3.861942
39.35	3.887723
39.36667	3.918485
39.38333	3.950223
39.4	3.976786
39.41667	3.998661
39.43333	4.020145
39.45	4.044657
39.46667	4.071219
39.48333	4.104325
39.5	4.143681
39.51667	4.182353
39.53333	4.214677
39.55	4.246708
39.56667	4.284501
39.58333	4.325028
39.6	4.363603
39.61667	4.400321
39.63333	4.439775
39.65	4.47913
39.66667	4.51077
39.68333	4.536063
39.7	4.56204
39.71667	4.592509
39.73333	4.626102
39.75	4.664774
39.76667	4.708622
39.78333	4.754325
39.8	4.796024
39.81667	4.833622
39.83333	4.872587
39.85	4.920829
39.86667	4.979032
39.88333	5.03372
39.9	5.072587
39.91667	5.100126
39.93333	5.12952
39.95	5.170048
39.96667	5.221317
39.98333	5.272587
40	5.312724
40.01667	5.34788
40.03333	5.391044
40.05	5.446513
40.06667	5.501493
40.08333	5.542899
40.1	5.570927
40.11667	5.599833
40.13333	5.643973
40.15	5.70452
40.16667	5.769364
40.18333	5.825712
40.2	5.875712
40.21667	5.926884
40.23333	5.983915
40.25	6.044169
40.26667	6.104911
40.28333	6.159208
40.3	6.200614
40.31667	6.230399
40.33333	6.262626
40.35	6.303935
40.36667	6.351298
40.38333	6.400809
40.4	6.450126
40.41667	6.49622
40.43333	6.53538
40.45	6.569755
40.46667	6.60745
40.48333	6.651884
40.5	6.698564
40.51667	6.741825
40.53333	6.785087
40.55	6.833426
40.56667	6.883719
40.58333	6.936454
40.6	6.999735
40.61667	7.084306
40.63333	7.188701
40.65	7.294365
40.66667	7.37874
40.68333	7.427177
40.7	7.444853
40.71667	7.442314
40.73333	7.428447
40.75	7.403544
40.76667	7.364189
40.78333	7.314775
40.8	7.266728
40.81667	7.227959
40.83333	7.195732
40.85	7.167021
40.86667	7.147588
40.88333	7.140947
40.9	7.140947
40.91667	7.144853
40.93333	7.158623
40.95	7.179814
40.96667	7.200517
40.98333	7.213701
41	7.223076
41.01667	7.228056
41.03333	7.226494
41.05	7.224248
41.06667	7.231963
41.08333	7.250127
41.1	7.268584
41.11667	7.2804
41.13333	7.286162
41.15	7.295146
41.16667	7.308525
41.18333	7.322001
41.2	7.333916
41.21667	7.352861
41.23333	7.379326
41.25	7.405791
41.26667	7.423564
41.28333	7.433916
41.3	7.444267
41.31667	7.459306
41.33333	7.480791
41.35	7.501006
41.36667	7.512236
41.38333	7.519755
41.4	7.528447
41.41667	7.536845
41.43333	7.541533
41.45	7.54456
41.46667	7.551689
41.48333	7.566728
41.5	7.589385
41.51667	7.617314
41.53333	7.643584
41.55	7.668681
41.56667	7.696025
41.58333	7.729716
41.6	7.761943
41.61667	7.781962
41.63333	7.786162
41.65	7.787333
41.66667	7.800517
41.68333	7.824834
41.7	7.841924
41.71667	7.847002
41.73333	7.85247
41.75	7.86458
41.76667	7.874443
41.78333	7.879228
41.8	7.885966
41.81667	7.898857
41.83333	7.915068
41.85	7.933232
41.86667	7.951103
41.88333	7.961845
41.9	7.965654
41.91667	7.967412
41.93333	7.973662
41.95	7.988799
41.96667	8.009306
41.98333	8.027178
42	8.034502
42.01667	8.036552
42.03333	8.04495
42.05	8.063505
42.06667	8.08499
42.08333	8.10081
42.1	8.108721
42.11667	8.106572
42.13333	8.100224
42.15	8.100126
42.16667	8.113798
42.18333	8.134209
42.2	8.147392
42.21667	8.148369
42.23333	8.145927
42.25	8.150225
42.26667	8.157061
42.28333	8.157451
42.3	8.152568
42.31667	8.150908
42.33333	8.155693
42.35	8.161552
42.36667	8.166728
42.38333	8.178642
42.4	8.199247
42.41667	8.219267
42.43333	8.228056
42.45	8.224833
42.46667	8.218584
42.48333	8.218779
42.5	8.224345
42.51667	8.229033
42.53333	8.233525
42.55	8.236162
42.56667	8.236943
42.58333	8.237139
42.6	8.237627
42.61667	8.238701
42.63333	8.241631
42.65	8.247294
42.66667	8.25374
42.68333	8.258135
42.7	8.25999
42.71667	8.258428
42.73333	8.25667
42.75	8.264189
42.76667	8.280107
42.78333	8.287724
42.8	8.277666
42.81667	8.256279
42.83333	8.237724
42.85	8.225224
42.86667	8.212725
42.88333	8.190166
42.9	8.157939
42.91667	8.127764
42.93333	8.113408
42.95	8.117803
42.96667	8.135771
42.98333	8.154424
43	8.16331
43.01667	8.168681
43.03333	8.184306
43.05	8.211454
43.06667	8.239189
43.08333	8.261357
43.1	8.277568
43.11667	8.275908
43.13333	8.240263
43.15	8.165263
43.16667	8.053838
43.18333	7.908232
43.2	7.732841
43.21667	7.534697
43.23333	7.317998
43.25	7.086942
43.26667	6.845731
43.28333	6.598856
43.3	6.354423
43.31667	6.123954
43.33333	5.911356
43.35	5.714384
43.36667	5.530107
43.38333	5.356767
43.4	5.191532
43.41667	5.032548
43.43333	4.880399
43.45	4.735575
43.46667	4.59827
43.48333	4.463895
43.5	4.32952
43.51667	4.198564
43.53333	4.074931
43.55	3.95911
43.56667	3.850614
43.58333	3.748173
43.6	3.646708
43.61667	3.542509
43.63333	3.437431
43.65	3.335575
43.66667	3.236356
43.68333	3.13704
43.7	3.037626
43.71667	2.941923
43.73333	2.855302
43.75	2.778348
43.76667	2.705888
43.78333	2.630302
43.8	2.548954
43.81667	2.467411
43.83333	2.391825
43.85	2.316532
43.86667	2.23411
43.88333	2.148661
43.9	2.072001
43.91667	2.00706
43.93333	1.947098
43.95	1.888602
43.96667	1.831376
43.98333	1.775614
44	1.720634
44.01667	1.667411
44.03333	1.619657
44.05	1.576981
44.06667	1.533524
44.08333	1.484013
44.1	1.430985
44.11667	1.384892
44.13333	1.350907
44.15	1.324833
44.16667	1.29827
44.18333	1.265556
44.2	1.222977
44.21667	1.176298
44.23333	1.134208
44.25	1.099931
44.26667	1.070634
44.28333	1.044657
44.3	1.019657
44.31667	0.9915321
44.33333	0.9621376
44.35	0.9406532
44.36667	0.9256142
44.38333	0.9060829
44.4	0.8772743
44.41667	0.8466102
44.43333	0.8260048
44.45	0.8151649
44.46667	0.808036
44.48333	0.7980751
44.5	0.7822548
44.51667	0.7618446
44.53333	0.7432899
44.55	0.7236611
44.56667	0.7038368
44.58333	0.6863564
44.6	0.6740516
44.61667	0.6613563
44.63333	0.6407509
44.65	0.6152626
44.66667	0.5902626
44.68333	0.5680946
44.7	0.5446571
44.71667	0.5223915
44.73333	0.508329
44.75	0.4995399
44.76667	0.4849892
44.78333	0.467704
44.8	0.4573525
44.81667	0.4477821
44.83333	0.4274696
44.85	0.3988563
44.86667	0.3734657
44.88333	0.3555946
44.9	0.340165
44.91667	0.3232704
44.93333	0.3012001
44.95	0.2783485
44.96667	0.2585243
44.98333	0.2457314
45	0.2372353
45.01667	0.2272743
45.03333	0.2161415
45.05	0.2038368
45.06667	0.1899696
45.08333	0.1782509
45.1	0.171122
45.11667	0.1684853
45.13333	0.1635048
45.15	0.1550087
45.16667	0.1473915
45.18333	0.1414345
45.2	0.1300087
45.21667	0.1116493
45.23333	0.09866104
45.25	0.09895401
45.26667	0.104911
45.28333	0.1110634
45.3	0.1165321
45.31667	0.1147743
45.33333	0.09573136
45.35	0.07317276
45.36667	0.06692276
45.38333	0.07610245
45.4	0.08196183
45.41667	0.07854386
45.43333	0.0730751
45.45	0.06916885
45.46667	0.06194229
45.48333	0.05491104
45.5	0.0480751
45.51667	0.03821182
45.53333	0.02395401
45.55	0.01545792
45.56667	0.01848526
45.58333	0.0246376
45.6	0.02434463
45.61667	0.01897354
45.63333	0.01389542
45.65	0.0112587
45.66667	0.01233292
45.68333	0.01545792
45.7	0.01770401
45.71667	0.01741104
45.73333	0.01116104
45.75	0.0007118225
45.76667	-0.007784271
45.78333	-0.00963974
45.8	-0.009053802
45.81667	-0.01159286
45.83333	-0.01471786
45.85	-0.01481552
45.86667	-0.01227646
45.88333	-0.01100693
45.9	-0.0153038
45.91667	-0.02516708
45.93333	-0.03337021
45.95	-0.03503036
45.96667	-0.03083115
45.98333	-0.0262413
46	-0.0253624
46.01667	-0.02565536
46.03333	-0.02458115
46.05	-0.02145615
46.06667	-0.01735458
46.08333	-0.01628036
46.1	-0.02438583
46.11667	-0.03796005
46.13333	-0.04909287
46.15	-0.05182724
46.16667	-0.04899521
46.18333	-0.0441124
46.2	-0.03678818
46.21667	-0.02858505
46.23333	-0.02184677
46.25	-0.02057724
46.26667	-0.02585068
46.28333	-0.03268661
46.3	-0.0340538
46.31667	-0.02829208
46.33333	-0.02438583
46.35	-0.02995224
46.36667	-0.0425499
46.38333	-0.05182724
46.4	-0.05671005
46.41667	-0.06471787
46.43333	-0.07399521
46.45	-0.07546005
46.46667	-0.0691124
46.48333	-0.06403427
46.5	-0.06403427
46.51667	-0.06637802
46.53333	-0.06803818
46.55	-0.06872177
46.56667	-0.06696396
46.58333	-0.06276474
46.6	-0.05719833
46.61667	-0.05182724
46.63333	-0.04733505
46.65	-0.04665146
46.66667	-0.04977646
46.68333	-0.05221786
46.7	-0.05329208
46.71667	-0.05690537
46.73333	-0.06579208
46.75	-0.0746788
46.76667	-0.07946396
46.78333	-0.07965927
46.8	-0.07887802
46.81667	-0.08034287
46.83333	-0.07995224
46.85	-0.07184677
46.86667	-0.05954208
46.88333	-0.05602646
46.9	-0.0668663
46.91667	-0.07858505
46.93333	-0.0840538
46.95	-0.08610459
46.96667	-0.08532333
46.98333	-0.0784874
47	-0.07008896
47.01667	-0.06745224
47.03333	-0.06969833
47.05	-0.07360458
47.06667	-0.0809288
47.08333	-0.08835068
47.1	-0.09167099
47.11667	-0.09235458
47.13333	-0.09489365
47.15	-0.09801865
47.16667	-0.09518661
47.18333	-0.08649521
47.2	-0.07868271
47.21667	-0.07350693
47.23333	-0.06823349
47.25	-0.06432724
47.26667	-0.06794052
47.28333	-0.07760849
47.3	-0.08688583
47.31667	-0.09294052
47.33333	-0.09743271
47.35	-0.09831162
47.36667	-0.09430771
47.38333	-0.08532333
47.4	-0.0762413
47.41667	-0.07428817
47.43333	-0.08219834
47.45	-0.09469833
47.46667	-0.1025108
47.48333	-0.09850693
47.5	-0.09020615
47.51667	-0.0862999
47.53333	-0.08727646
47.55	-0.08415146
47.56667	-0.07614364
47.58333	-0.07399521
47.6	-0.07995224
47.61667	-0.0824913
47.63333	-0.07790146
47.65	-0.07194443
47.66667	-0.06921005
47.68333	-0.07126083
47.7	-0.07878037
47.71667	-0.08522568
47.73333	-0.08395614
47.75	-0.07780381
47.76667	-0.07653427
47.78333	-0.08024521
47.8	-0.08424912
47.81667	-0.08483505
47.83333	-0.08356552
47.85	-0.08415146
47.86667	-0.09020615
47.88333	-0.09743271
47.9	-0.09792099
47.91667	-0.09176864
47.93333	-0.08786239
47.95	-0.08932724
47.96667	-0.09069443
47.98333	-0.09137802
48	-0.09587021
48.01667	-0.1046593
48.03333	-0.1071983
48.05	-0.1022179
48.06667	-0.09665146
48.08333	-0.09381942
48.1	-0.08727646
48.11667	-0.07497177
48.13333	-0.06598739
48.15	-0.06628036
48.16667	-0.07428817
48.18333	-0.07956161
48.2	-0.07790146
48.21667	-0.07516708
48.23333	-0.07819442
48.25	-0.08112411
48.26667	-0.07682724
48.28333	-0.07018661
48.3	-0.06735458
48.31667	-0.06501083
48.33333	-0.06071396
48.35	-0.05807724
48.36667	-0.05690537
48.38333	-0.05172958
48.4	-0.04323349
48.41667	-0.03610458
48.43333	-0.0347374
48.45	-0.03991318
48.46667	-0.04919052
48.48333	-0.05934677
48.5	-0.06559677
48.51667	-0.06803818
48.53333	-0.06667099
48.55	-0.05934677
48.56667	-0.05182724
48.58333	-0.05221786
48.6	-0.06169052
48.61667	-0.06979599
48.63333	-0.07018661
48.65	-0.06930771
48.66667	-0.07145615
48.68333	-0.07253037
48.7	-0.06774521
48.71667	-0.06022568
48.73333	-0.05563583
48.75	-0.05358505
48.76667	-0.05006943
48.78333	-0.04713974
48.8	-0.04919052
48.81667	-0.05514755
48.83333	-0.06159287
48.85	-0.06042099
48.86667	-0.05309677
48.88333	-0.04772568
48.9	-0.04879989
48.91667	-0.05573349
48.93333	-0.0653038
48.95	-0.07194443
48.96667	-0.07409286
48.98333	-0.07233505
49	-0.07340927
49.01667	-0.07379989
49.03333	-0.06891708
49.05	-0.06276474
49.06667	-0.06588974
49.08333	-0.07594834
49.1	-0.07985459
49.11667	-0.07292099
49.13333	-0.06276474
49.15	-0.0550499
49.16667	-0.05202255
49.18333	-0.04987412
49.2	-0.04626083
49.21667	-0.04577255
49.23333	-0.05299912
49.25	-0.06276474
49.26667	-0.06462021
49.28333	-0.05963974
49.3	-0.05758896
49.31667	-0.06462021
49.33333	-0.07340927
49.35	-0.07741318
49.36667	-0.07516708
49.38333	-0.07213974
49.4	-0.07047959
49.41667	-0.06764755
49.43333	-0.06344833
49.45	-0.06325302
49.46667	-0.06803818
49.48333	-0.07213974
49.5	-0.07077255
49.51667	-0.06393661
49.53333	-0.05563583
49.55	-0.04860459
49.56667	-0.04303818
49.58333	-0.04010849
49.6	-0.04108505
49.61667	-0.04665146
49.63333	-0.05475693
49.65	-0.06315537
49.66667	-0.06774521
49.68333	-0.06999131
49.7	-0.07272568
49.71667	-0.07575302
49.73333	-0.07389756
49.75	-0.06598739
49.76667	-0.05544052
49.78333	-0.04948349
49.8	-0.04772568
49.81667	-0.04840927
49.83333	-0.05368271
49.85	-0.06315537
49.86667	-0.06628036
49.88333	-0.05719833
49.9	-0.04557724
49.91667	-0.04137802
49.93333	-0.04196396
49.95	-0.03835068
49.96667	-0.03219833
49.98333	-0.0340538
50	-0.0472374
50.01667	-0.06520615
50.03333	-0.07702255
50.05	-0.0809288
50.06667	-0.08014755
50.08333	-0.07682724
50.1	-0.07350693
50.11667	-0.07253037
50.13333	-0.07174911
50.15	-0.06940536
50.16667	-0.06725693
50.18333	-0.06637802
50.2	-0.06413193
50.21667	-0.05417099
50.23333	-0.04020615
50.25	-0.02917099
50.26667	-0.02721786
50.28333	-0.03532333
50.3	-0.0472374
50.31667	-0.05573349
50.33333	-0.05885849
50.35	-0.05924911
50.36667	-0.06237411
50.38333	-0.06618271
50.4	-0.06598739
50.41667	-0.06051864
50.43333	-0.05514755
50.45	-0.0574913
50.46667	-0.0675499
50.48333	-0.07770614
50.5	-0.08112411
50.51667	-0.07448349
50.53333	-0.06227646
50.55	-0.0543663
50.56667	-0.05768662
50.58333	-0.06696396
50.6	-0.06921005
50.61667	-0.05944443
50.63333	-0.04909287
50.65	-0.05212021
50.66667	-0.06647567
50.68333	-0.07585068
50.7	-0.07741318
50.71667	-0.07702255
50.73333	-0.07663193
50.75	-0.0715538
50.76667	-0.0637413
50.78333	-0.06237411
50.8	-0.06852646
50.81667	-0.07272568
50.83333	-0.0691124
50.85	-0.06325302
50.86667	-0.0606163
50.88333	-0.0574913
50.9	-0.05153427
50.91667	-0.04704208
50.93333	-0.05143661
50.95	-0.06237411
50.96667	-0.06696396
50.98333	-0.06237411
51	-0.05524521
51.01667	-0.05046005
51.03333	-0.04665146
51.05	-0.0441124
51.06667	-0.04391708
51.08333	-0.04508896
51.1	-0.04733505
51.11667	-0.05260849
51.13333	-0.05622177
51.15	-0.05456161
51.16667	-0.05241318
51.18333	-0.05797958
51.2	-0.06803818
51.21667	-0.07038192
51.23333	-0.06559677
51.25	-0.06003036
51.26667	-0.05729599
51.28333	-0.05573349
51.3	-0.05524521
51.31667	-0.06012802
51.33333	-0.06745224
51.35	-0.07243271
51.36667	-0.07546005
51.38333	-0.07633896
51.4	-0.07409286
51.41667	-0.06950302
51.43333	-0.06989364
51.45	-0.07663193
51.46667	-0.08063583
51.48333	-0.07770614
51.5	-0.07506943
51.51667	-0.07819442
51.53333	-0.08171006
51.55	-0.08112411
51.56667	-0.0762413
51.58333	-0.06872177
51.6	-0.05583115
51.61667	-0.04206162
51.63333	-0.03385849
51.65	-0.03444443
51.66667	-0.04264755
51.68333	-0.05465927
51.7	-0.06471787
51.71667	-0.06647567
51.73333	-0.06237411
51.75	-0.06139755
51.76667	-0.06608506
51.78333	-0.0706749
51.8	-0.06803818
51.81667	-0.05963974
51.83333	-0.05055771
51.85	-0.04450302
51.86667	-0.04538193
51.88333	-0.05299912
51.9	-0.06227646
51.91667	-0.06813584
51.93333	-0.07243271
51.95	-0.07995224
51.96667	-0.08600692
51.98333	-0.0840538
52	-0.07555771
52.01667	-0.06725693
52.03333	-0.06559677
52.05	-0.06891708
52.06667	-0.07506943
52.08333	-0.08063583
52.1	-0.0824913
52.11667	-0.07907333
52.13333	-0.07145615
52.15	-0.06637802
52.16667	-0.06794052
52.18333	-0.07370224
52.2	-0.07838974
52.21667	-0.0784874
52.23333	-0.07389756
52.25	-0.06579208
52.26667	-0.05446396
52.28333	-0.04928818
52.3	-0.05182724
52.31667	-0.0606163
52.33333	-0.0706749
52.35	-0.08053818
52.36667	-0.09040146
52.38333	-0.09684677
52.4	-0.09948349
52.41667	-0.09762802
52.43333	-0.08893661
52.45	-0.07331161
52.46667	-0.05924911
52.48333	-0.05837021
52.5	-0.06862412
52.51667	-0.08073349
52.53333	-0.0871788
52.55	-0.0831749
52.56667	-0.06989364
52.58333	-0.05768662
52.6	-0.05866318
52.61667	-0.06745224
52.63333	-0.07321396
52.65	-0.07428817
52.66667	-0.07350693
52.68333	-0.07379989
52.7	-0.07633896
52.71667	-0.08122177
52.73333	-0.08297958
52.75	-0.07760849
52.76667	-0.06901474
52.78333	-0.06813584
52.8	-0.07741318
52.81667	-0.08454208
52.83333	-0.08014755
52.85	-0.06989364
52.86667	-0.06676865
52.88333	-0.07194443
52.9	-0.07526474
52.91667	-0.07038192
52.93333	-0.06256942
52.95	-0.05719833
52.96667	-0.0590538
52.98333	-0.06364365
53	-0.06823349
53.01667	-0.06813584
53.03333	-0.06159287
53.05	-0.05622177
53.06667	-0.06100693
53.08333	-0.0731163
53.1	-0.08112411
53.11667	-0.08034287
53.13333	-0.07604599
53.15	-0.07213974
53.16667	-0.06667099
53.18333	-0.05944443
53.2	-0.0590538
53.21667	-0.06774521
53.23333	-0.07477646
53.25	-0.07497177
53.26667	-0.07253037
53.28333	-0.07116318
53.3	-0.06637802
53.31667	-0.05846786
53.33333	-0.0581749
53.35	-0.06969833
53.36667	-0.08044052
53.38333	-0.07819442
53.4	-0.06647567
53.41667	-0.05739365
53.43333	-0.05895615
53.45	-0.06540146
53.46667	-0.06999131
53.48333	-0.07282333
53.5	-0.07253037
53.51667	-0.06891708
53.53333	-0.06510849
53.55	-0.0653038
53.56667	-0.07233505
53.58333	-0.08268662
53.6	-0.08815537
53.61667	-0.08376084
53.63333	-0.07389756
53.65	-0.07028427
53.66667	-0.07487412
53.68333	-0.08044052
53.7	-0.08063583
53.71667	-0.07643662
53.73333	-0.07409286
53.75	-0.07428817
53.76667	-0.07379989
53.78333	-0.06881943
53.8	-0.06071396
53.81667	-0.0543663
53.83333	-0.05534286
53.85	-0.06100693
53.86667	-0.06481552
53.88333	-0.06588974
53.9	-0.06706162
53.91667	-0.0684288
53.93333	-0.0653038
53.95	-0.05631943
53.96667	-0.05133896
53.98333	-0.05924911
54	-0.07594834
54.01667	-0.08581161
54.03333	-0.07907333
54.05	-0.06305771
54.06667	-0.05290146
54.08333	-0.05651474
54.1	-0.06618271
54.11667	-0.0691124
54.13333	-0.06618271
54.15	-0.0621788
54.16667	-0.05827255
54.18333	-0.0534874
54.2	-0.04733505
54.21667	-0.04587021
54.23333	-0.05104599
54.25	-0.06003036
54.26667	-0.06501083
54.28333	-0.06188583
54.3	-0.05768662
54.31667	-0.06422959
54.33333	-0.0769249
54.35	-0.08659287
54.36667	-0.08356552
54.38333	-0.06891708
54.4	-0.0512413
54.41667	-0.0403038
54.43333	-0.03385849
54.45	-0.02682724
54.46667	-0.0222374
54.48333	-0.02399521
54.5	-0.02858505
54.51667	-0.03063583
54.53333	-0.03503036
54.55	-0.04674911
54.56667	-0.06227646
54.58333	-0.07106552
54.6	-0.07282333
54.61667	-0.07047959
54.63333	-0.0637413
54.65	-0.05583115
54.66667	-0.05768662
54.68333	-0.07038192
54.7	-0.08190536
54.71667	-0.08581161
54.73333	-0.08424912
54.75	-0.07887802
54.76667	-0.06989364
54.78333	-0.06149521
54.8	-0.05758896
54.81667	-0.05680771
54.83333	-0.05143661
54.85	-0.04108505
54.86667	-0.0340538
54.88333	-0.03581161
54.9	-0.0418663
54.91667	-0.04674911
54.93333	-0.05075302
54.95	-0.05797958
54.96667	-0.06452255
54.98333	-0.06657334
55	-0.07096787
