"SampleName"	"19. PC-12 Atp2b2 shRNA TR"
"System Name"	"Alliance 2"
"Sample Set Name"	"DTtV_15052025 GSL new HPLC"
"Date Acquired"	"5/16/2025 7:50:29 AM BST"
"Sample Set Start Date"	"5/15/2025 2:04:31 PM BST"
0	6.17981e-05
0.01666667	0.0003959656
0.03333333	0.0008594513
0.05	0.006328201
0.06666667	0.02009773
0.08333333	0.04519539
0.1	0.07546882
0.1166667	0.0985157
0.1333333	0.1033985
0.15	0.0969532
0.1666667	0.0922657
0.1833333	0.09373055
0.2	0.09753914
0.2166667	0.1002735
0.2333333	0.1039845
0.25	0.1119923
0.2666667	0.124004
0.2833333	0.1341602
0.3	0.1380665
0.3166667	0.1400196
0.3333333	0.1431446
0.35	0.1410938
0.3666667	0.1300587
0.3833333	0.1194141
0.4	0.1203907
0.4166667	0.1279102
0.4333333	0.1303516
0.45	0.1262501
0.4666667	0.1215626
0.4833333	0.1154102
0.5	0.107793
0.5166667	0.1043751
0.5333333	0.1078907
0.55	0.1170704
0.5666667	0.1214649
0.5833333	0.1127735
0.6	0.09265633
0.6166667	0.07722664
0.6333333	0.07771492
0.65	0.08591805
0.6666667	0.08708992
0.6833333	0.08093758
0.7	0.07908211
0.7166667	0.08484383
0.7333333	0.0915821
0.75	0.09431648
0.7666667	0.09744148
0.7833333	0.1009571
0.8	0.09724617
0.8166667	0.0891407
0.8333333	0.08728524
0.85	0.09656258
0.8666667	0.1072071
0.8833333	0.1084766
0.9	0.1008594
0.9166667	0.08933602
0.9333333	0.07966805
0.95	0.07488289
0.9666667	0.07585945
0.9833333	0.07830086
1	0.07810555
1.016667	0.0750782
1.033333	0.07097664
1.05	0.07185555
1.066667	0.07869148
1.083333	0.08572273
1.1	0.08728524
1.116667	0.08220711
1.133333	0.07439461
1.15	0.06580086
1.166667	0.05974617
1.183333	0.05691414
1.2	0.05447273
1.216667	0.05134773
1.233333	0.05037117
1.25	0.05105476
1.266667	0.04861336
1.283333	0.04392586
1.3	0.04246102
1.316667	0.04441414
1.333333	0.04529304
1.35	0.04314461
1.366667	0.03523445
1.383333	0.01892586
1.4	0.002031326
1.416667	-0.0005077362
1.433333	0.01404305
1.45	0.03259773
1.466667	0.03855477
1.483333	0.03503914
1.5	0.03152351
1.516667	0.03113289
1.533333	0.03083992
1.55	0.03103523
1.566667	0.03220711
1.583333	0.03347664
1.6	0.03689461
1.616667	0.04431648
1.633333	0.05115242
1.65	0.05173836
1.666667	0.04509773
1.683333	0.03875007
1.7	0.04265632
1.716667	0.06150398
1.733333	0.09578133
1.75	0.1408009
1.766667	0.1899219
1.783333	0.2350391
1.8	0.2694141
1.816667	0.2903126
1.833333	0.292461
1.85	0.280547
1.866667	0.2660938
1.883333	0.2550587
1.9	0.2387501
1.916667	0.2152149
1.933333	0.1943165
1.95	0.1835743
1.966667	0.1733204
1.983333	0.1507618
2	0.1245899
2.016667	0.1086719
2.033333	0.101836
2.05	0.09187508
2.066667	0.07957039
2.083333	0.07341804
2.1	0.07058601
2.116667	0.06580086
2.133333	0.05359383
2.15	0.03787117
2.166667	0.0241993
2.183333	0.01990242
2.2	0.02009773
2.216667	0.01794929
2.233333	0.01248054
2.25	0.008086014
2.266667	0.00583992
2.283333	0.0004688263
2.3	-0.00978508
2.316667	-0.02062492
2.333333	-0.02814445
2.35	-0.0342968
2.366667	-0.03996086
2.383333	-0.04201164
2.4	-0.03878899
2.416667	-0.03654289
2.433333	-0.04562492
2.45	-0.07160149
2.466667	-0.1019726
2.483333	-0.1195507
2.5	-0.1205273
2.516667	-0.1143749
2.533333	-0.110664
2.55	-0.1102734
2.566667	-0.1102734
2.583333	-0.1042187
2.6	-0.08908196
2.616667	-0.07052727
2.633333	-0.04943352
2.65	-0.02013664
2.666667	0.02927742
2.683333	0.1013477
2.7	0.1913868
2.716667	0.2980274
2.733333	0.4298634
2.75	0.5953907
2.766667	0.7988087
2.783333	1.045391
2.8	1.346172
2.816667	1.710527
2.833333	2.143731
2.85	2.652129
2.866667	3.251348
2.883333	3.96834
2.9	4.811017
2.916667	5.733966
2.933333	6.639337
2.95	7.421563
2.966667	8.006914
2.983333	8.362677
3	8.494805
3.016667	8.450176
3.033333	8.309747
3.05	8.151153
3.066667	8.016582
3.083333	7.915215
3.1	7.847149
3.116667	7.813262
3.133333	7.80252
3.15	7.792364
3.166667	7.770977
3.183333	7.745586
3.2	7.73875
3.216667	7.794122
3.233333	7.971953
3.25	8.333282
3.266667	8.925469
3.283333	9.784746
3.3	10.95838
3.316667	12.48914
3.333333	14.3407
3.35	16.34969
3.366667	18.27684
3.383333	19.92225
3.4	21.19851
3.416667	22.14412
3.433333	23.01473
3.45	24.80418
3.466667	30.44275
3.483333	45.74061
3.5	77.86756
3.516667	130.6727
3.533333	200.6225
3.55	278.0862
3.566667	352.8699
3.583333	417.9023
3.6	468.3593
3.616667	499.7252
3.633333	508.468
3.65	494.5121
3.666667	462.3972
3.683333	419.8888
3.7	375.2562
3.716667	335.1091
3.733333	303.6245
3.75	282.8849
3.766667	273.628
3.783333	275.7277
3.8	288.1425
3.816667	308.4659
3.833333	332.5277
3.85	354.449
3.866667	367.5702
3.883333	366.724
3.9	350.7681
3.916667	322.101
3.933333	283.0955
3.95	235.2497
3.966667	182.8263
3.983333	133.9677
4	95.73142
4.016667	69.54314
4.033333	52.58827
4.05	41.58417
4.066667	34.29374
4.083333	29.2909
4.1	25.62176
4.116667	22.70369
4.133333	20.27137
4.15	18.26404
4.166667	16.68592
4.183333	15.51033
4.2	14.67156
4.216667	14.09568
4.233333	13.70408
4.25	13.41854
4.266667	13.1825
4.283333	12.98123
4.3	12.82547
4.316667	12.73982
4.333333	12.76805
4.35	12.95135
4.366667	13.30926
4.383333	13.83025
4.4	14.48016
4.416667	15.18865
4.433333	15.83338
4.45	16.26561
4.466667	16.36463
4.483333	16.09314
4.5	15.50486
4.516667	14.70271
4.533333	13.78562
4.55	12.82303
4.566667	11.86336
4.583333	10.93934
4.6	10.07674
4.616667	9.297441
4.633333	8.630645
4.65	8.119513
4.666667	7.816289
4.683333	7.753203
4.7	7.916387
4.716667	8.2367
4.733333	8.603497
4.75	8.895196
4.766667	9.025664
4.783333	8.979082
4.8	8.806817
4.816667	8.583574
4.833333	8.364923
4.85	8.170196
4.866667	7.99168
4.883333	7.817461
4.9	7.65252
4.916667	7.523711
4.933333	7.466778
4.95	7.493829
4.966667	7.58045
4.983333	7.673419
5	7.721075
5.016667	7.695196
5.033333	7.602618
5.05	7.479766
5.066667	7.359746
5.083333	7.255548
5.1	7.169317
5.116667	7.107892
5.133333	7.070001
5.15	7.031134
5.166667	6.954767
5.183333	6.821368
5.2	6.637091
5.216667	6.418732
5.233333	6.18338
5.25	5.944122
5.266667	5.714044
5.283333	5.503399
5.3	5.314727
5.316667	5.138946
5.333333	4.964141
5.35	4.789239
5.366667	4.627521
5.383333	4.499883
5.4	4.420684
5.416667	4.388946
5.433333	4.395391
5.45	4.434258
5.466667	4.495684
5.483333	4.553301
5.5	4.579083
5.516667	4.572735
5.533333	4.564239
5.55	4.60545
5.566667	4.760138
5.583333	5.090508
5.6	5.609161
5.616667	6.246563
5.633333	6.866681
5.65	7.329669
5.666667	7.545587
5.683333	7.503008
5.7	7.257989
5.716667	6.903107
5.733333	6.532501
5.75	6.208282
5.766667	5.954766
5.783333	5.774786
5.8	5.659356
5.816667	5.592267
5.833333	5.558477
5.85	5.544903
5.866667	5.535919
5.883333	5.523614
5.9	5.50545
5.916667	5.469317
5.933333	5.399493
5.95	5.289142
5.966667	5.141192
5.983333	4.956915
6	4.74002
6.016667	4.501348
6.033333	4.261114
6.05	4.037871
6.066667	3.841094
6.083333	3.666973
6.1	3.507695
6.116667	3.366094
6.133333	3.255156
6.15	3.182012
6.166667	3.135625
6.183333	3.09793
6.2	3.058574
6.216667	3.012187
6.233333	2.957891
6.25	2.896074
6.266667	2.829961
6.283333	2.76043
6.3	2.688848
6.316667	2.620879
6.333333	2.565117
6.35	2.519316
6.366667	2.474883
6.383333	2.428399
6.4	2.3825
6.416667	2.343145
6.433333	2.311895
6.45	2.29334
6.466667	2.287481
6.483333	2.293926
6.5	2.312773
6.516667	2.342363
6.533333	2.373516
6.55	2.397149
6.566667	2.415703
6.583333	2.430645
6.6	2.437969
6.616667	2.434258
6.633333	2.420684
6.65	2.392363
6.666667	2.341777
6.683333	2.27332
6.7	2.200078
6.716667	2.131035
6.733333	2.06541
6.75	2.004375
6.766667	1.951836
6.783333	1.905938
6.8	1.861113
6.816667	1.819609
6.833333	1.796074
6.85	1.803594
6.866667	1.843145
6.883333	1.907891
6.9	1.991192
6.916667	2.083965
6.933333	2.175762
6.95	2.258184
6.966667	2.323809
6.983333	2.36668
7	2.382402
7.016667	2.372344
7.033333	2.339727
7.05	2.291192
7.066667	2.233184
7.083333	2.172246
7.1	2.115703
7.116667	2.072344
7.133333	2.04461
7.15	2.027812
7.166667	2.014824
7.183333	1.99627
7.2	1.964922
7.216667	1.928008
7.233333	1.900566
7.25	1.887871
7.266667	1.880449
7.283333	1.871465
7.3	1.868145
7.316667	1.885918
7.333333	1.938652
7.35	2.042949
7.366667	2.21834
7.383333	2.469609
7.4	2.774981
7.416667	3.089531
7.433333	3.365996
7.45	3.564825
7.466667	3.662872
7.483333	3.653692
7.5	3.550664
7.516667	3.381816
7.533333	3.174981
7.55	2.951348
7.566667	2.730059
7.583333	2.528496
7.6	2.352129
7.616667	2.19207
7.633333	2.04002
7.65	1.905547
7.666667	1.80291
7.683333	1.731035
7.7	1.678106
7.716667	1.638067
7.733333	1.612676
7.75	1.596856
7.766667	1.58709
7.783333	1.584844
7.8	1.591094
7.816667	1.601445
7.833333	1.609941
7.85	1.617949
7.866667	1.622832
7.883333	1.62166
7.9	1.612578
7.916667	1.603399
7.933333	1.600762
7.95	1.604668
7.966667	1.612481
7.983333	1.623613
8	1.636699
8.016667	1.651738
8.033333	1.670098
8.05	1.694121
8.066667	1.724785
8.083333	1.757988
8.1	1.792852
8.116667	1.834356
8.133333	1.88748
8.15	1.95291
8.166667	2.032598
8.183333	2.132988
8.2	2.261992
8.216667	2.423906
8.233333	2.614727
8.25	2.829082
8.266667	3.056817
8.283333	3.273906
8.3	3.447539
8.316667	3.557988
8.333333	3.607012
8.35	3.597735
8.366667	3.524199
8.383333	3.387969
8.4	3.21209
8.416667	3.022734
8.433333	2.828496
8.45	2.629668
8.466667	2.432695
8.483333	2.251445
8.5	2.093535
8.516667	1.956328
8.533333	1.834942
8.55	1.729473
8.566667	1.643047
8.583333	1.573906
8.6	1.515215
8.616667	1.458574
8.633333	1.40125
8.65	1.353008
8.666667	1.322344
8.683333	1.305254
8.7	1.292168
8.716667	1.275664
8.733333	1.256426
8.75	1.238652
8.766667	1.23123
8.783333	1.234746
8.8	1.241387
8.816667	1.243926
8.833333	1.245586
8.85	1.24666
8.866667	1.243926
8.883333	1.241192
8.9	1.246465
8.916667	1.27
8.933333	1.314141
8.95	1.367461
8.966667	1.420781
8.983333	1.47459
9	1.534356
9.016667	1.600567
9.033333	1.67166
9.05	1.750078
9.066667	1.839141
9.083333	1.944317
9.1	2.070977
9.116667	2.212969
9.133333	2.357012
9.15	2.48543
9.166667	2.590508
9.183333	2.661113
9.2	2.686797
9.216667	2.664531
9.233333	2.599102
9.25	2.504473
9.266667	2.387969
9.283333	2.254473
9.3	2.119512
9.316667	1.997832
9.333333	1.89041
9.35	1.786602
9.366667	1.678496
9.383333	1.571367
9.4	1.471172
9.416667	1.381817
9.433333	1.303301
9.45	1.23416
9.466667	1.173906
9.483333	1.118047
9.5	1.065508
9.516667	1.021465
9.533333	0.9892384
9.55	0.9627735
9.566667	0.9380665
9.583333	0.920293
9.6	0.9096485
9.616667	0.9002735
9.633333	0.8942188
9.65	0.8973438
9.666667	0.9141407
9.683333	0.9401172
9.7	0.967461
9.716667	0.9873829
9.733333	1.003594
9.75	1.026934
9.766667	1.062383
9.783333	1.103496
9.8	1.148613
9.816667	1.201543
9.833333	1.25877
9.85	1.310625
9.866667	1.351055
9.883333	1.38377
9.9	1.408965
9.916667	1.423711
9.933333	1.422441
9.95	1.401055
9.966667	1.362969
9.983333	1.313262
10	1.249785
10.01667	1.169609
10.03333	1.074395
10.05	0.9785938
10.06667	0.8965626
10.08333	0.833379
10.1	0.7801563
10.11667	0.7292774
10.13333	0.6855274
10.15	0.6576954
10.16667	0.6437305
10.18333	0.6344532
10.2	0.6186329
10.21667	0.5935352
10.23333	0.5696095
10.25	0.5575001
10.26667	0.5539845
10.28333	0.5456837
10.3	0.5308399
10.31667	0.520879
10.33333	0.520586
10.35	0.5204884
10.36667	0.5134571
10.38333	0.5011524
10.4	0.4902149
10.41667	0.4852344
10.43333	0.4825001
10.45	0.476543
10.46667	0.4688282
10.48333	0.4699024
10.5	0.4810352
10.51667	0.4908985
10.53333	0.4886524
10.55	0.4776173
10.56667	0.4632618
10.58333	0.4528126
10.6	0.4535938
10.61667	0.4638477
10.63333	0.4700001
10.65	0.4668751
10.66667	0.4621876
10.68333	0.4604298
10.7	0.4577931
10.71667	0.4527149
10.73333	0.449004
10.75	0.4493946
10.76667	0.4494923
10.78333	0.4439259
10.8	0.433379
10.81667	0.4259571
10.83333	0.4300587
10.85	0.4394337
10.86667	0.4404102
10.88333	0.4298634
10.9	0.4206837
10.91667	0.4232227
10.93333	0.4345509
10.95	0.4439259
10.96667	0.4442188
10.98333	0.4388477
11	0.4344532
11.01667	0.4316212
11.03333	0.429668
11.05	0.4304493
11.06667	0.4316212
11.08333	0.4258595
11.1	0.4129688
11.11667	0.4029102
11.13333	0.404961
11.15	0.4152149
11.16667	0.4294727
11.18333	0.4433399
11.2	0.4470509
11.21667	0.436504
11.23333	0.4245899
11.25	0.4241017
11.26667	0.4315235
11.28333	0.436797
11.3	0.4345509
11.31667	0.4284962
11.33333	0.4265431
11.35	0.4310352
11.36667	0.4380665
11.38333	0.4468555
11.4	0.4596485
11.41667	0.4720508
11.43333	0.4782032
11.45	0.4841602
11.46667	0.4976368
11.48333	0.5075977
11.5	0.5019337
11.51667	0.4847462
11.53333	0.4750782
11.55	0.480547
11.56667	0.4937305
11.58333	0.5005665
11.6	0.5028126
11.61667	0.5101368
11.63333	0.5286915
11.65	0.5571095
11.66667	0.5913868
11.68333	0.6260548
11.7	0.6545704
11.71667	0.6807423
11.73333	0.714336
11.75	0.7586719
11.76667	0.8118946
11.78333	0.873711
11.8	0.9389454
11.81667	1.004473
11.83333	1.077813
11.85	1.160918
11.86667	1.240117
11.88333	1.305547
11.9	1.363164
11.91667	1.416777
11.93333	1.459648
11.95	1.487481
11.96667	1.505352
11.98333	1.513067
12	1.508477
12.01667	1.490898
12.03333	1.46209
12.05	1.420781
12.06667	1.372637
12.08333	1.323125
12.1	1.275469
12.11667	1.230449
12.13333	1.187578
12.15	1.144805
12.16667	1.100176
12.18333	1.056524
12.2	1.017852
12.21667	0.983086
12.23333	0.951543
12.25	0.9249805
12.26667	0.901836
12.28333	0.8815235
12.3	0.8642384
12.31667	0.8527149
12.33333	0.8466603
12.35	0.8417774
12.36667	0.8326954
12.38333	0.8219532
12.4	0.8148243
12.41667	0.8137501
12.43333	0.810918
12.45	0.8035938
12.46667	0.7957813
12.48333	0.789336
12.5	0.780254
12.51667	0.7727345
12.53333	0.7767383
12.55	0.792754
12.56667	0.808086
12.58333	0.8166798
12.6	0.8225392
12.61667	0.8259571
12.63333	0.8258594
12.65	0.8187305
12.66667	0.8054493
12.68333	0.789629
12.7	0.7767383
12.71667	0.7700977
12.73333	0.7651173
12.75	0.7579883
12.76667	0.7505665
12.78333	0.7435352
12.8	0.7353321
12.81667	0.7301563
12.83333	0.7307423
12.85	0.7361134
12.86667	0.7366993
12.88333	0.7281055
12.9	0.7203907
12.91667	0.7227345
12.93333	0.729961
12.95	0.7263477
12.96667	0.7116016
12.98333	0.7010548
13	0.7044727
13.01667	0.7175587
13.03333	0.7323048
13.05	0.7446095
13.06667	0.7511524
13.08333	0.7485157
13.1	0.7371876
13.11667	0.7280079
13.13333	0.7324024
13.15	0.7497852
13.16667	0.7672657
13.18333	0.7797657
13.2	0.7870899
13.21667	0.7908009
13.23333	0.7973439
13.25	0.8134571
13.26667	0.8411915
13.28333	0.8715626
13.3	0.8947071
13.31667	0.9094532
13.33333	0.9207813
13.35	0.932793
13.36667	0.9420704
13.38333	0.9416798
13.4	0.9297657
13.41667	0.9154102
13.43333	0.9108204
13.45	0.9173633
13.46667	0.9258595
13.48333	0.9329883
13.5	0.9408985
13.51667	0.9447071
13.53333	0.9404103
13.55	0.9341602
13.56667	0.9308399
13.58333	0.9286915
13.6	0.9306446
13.61667	0.9432423
13.63333	0.9608204
13.65	0.9723438
13.66667	0.9789845
13.68333	0.9872853
13.7	0.995879
13.71667	1.000371
13.73333	1.006817
13.75	1.018242
13.76667	1.026348
13.78333	1.021953
13.8	1.010625
13.81667	0.9997852
13.83333	0.9871876
13.85	0.9700977
13.86667	0.9504688
13.88333	0.9325978
13.9	0.9192188
13.91667	0.9130665
13.93333	0.9147266
13.95	0.9172657
13.96667	0.9126759
13.98333	0.9036915
14	0.9042774
14.01667	0.9198048
14.03333	0.9473438
14.05	0.9818165
14.06667	1.024199
14.08333	1.072637
14.1	1.124688
14.11667	1.18377
14.13333	1.257891
14.15	1.346074
14.16667	1.43582
14.18333	1.521856
14.2	1.609941
14.21667	1.701641
14.23333	1.790215
14.25	1.868145
14.26667	1.929473
14.28333	1.975957
14.3	2.009453
14.31667	2.028692
14.33333	2.028399
14.35	2.014727
14.36667	1.997637
14.38333	1.972734
14.4	1.926934
14.41667	1.860625
14.43333	1.792656
14.45	1.734648
14.46667	1.678789
14.48333	1.615898
14.5	1.548711
14.51667	1.482695
14.53333	1.420488
14.55	1.363164
14.56667	1.310527
14.58333	1.260527
14.6	1.214824
14.61667	1.177031
14.63333	1.145781
14.65	1.11707
14.66667	1.088457
14.68333	1.060332
14.7	1.03084
14.71667	1.002324
14.73333	0.983086
14.75	0.9777149
14.76667	0.9787892
14.78333	0.9767383
14.8	0.9673634
14.81667	0.9550587
14.83333	0.9445118
14.85	0.9423634
14.86667	0.9435352
14.88333	0.9375782
14.9	0.9248829
14.91667	0.9138477
14.93333	0.9139454
14.95	0.9256641
14.96667	0.939629
14.98333	0.9453907
15	0.9422657
15.01667	0.9406055
15.03333	0.9462696
15.05	0.9517384
15.06667	0.9489063
15.08333	0.9419727
15.1	0.939043
15.11667	0.9407032
15.13333	0.9450001
15.15	0.9503711
15.16667	0.9528126
15.18333	0.9504688
15.2	0.9474415
15.21667	0.9508594
15.23333	0.9560353
15.25	0.9543751
15.26667	0.9434376
15.28333	0.9309376
15.3	0.9255665
15.31667	0.9274219
15.33333	0.9292774
15.35	0.9279102
15.36667	0.9284962
15.38333	0.9354298
15.4	0.9450001
15.41667	0.9525196
15.43333	0.9534962
15.45	0.9491993
15.46667	0.9447071
15.48333	0.9463673
15.5	0.9481251
15.51667	0.9443165
15.53333	0.9422657
15.55	0.9466602
15.56667	0.9535939
15.58333	0.9547657
15.6	0.9531056
15.61667	0.9582813
15.63333	0.970586
15.65	0.9794728
15.66667	0.9783009
15.68333	0.9745899
15.7	0.9754688
15.71667	0.9775196
15.73333	0.9781055
15.75	0.9815235
15.76667	0.9947071
15.78333	1.008672
15.8	1.013262
15.81667	1.006523
15.83333	0.995293
15.85	0.989629
15.86667	0.9971485
15.88333	1.015117
15.9	1.029473
15.91667	1.030938
15.93333	1.023418
15.95	1.018438
15.96667	1.015898
15.98333	1.014531
16	1.018633
16.01667	1.03084
16.03333	1.043242
16.05	1.046563
16.06667	1.045
16.08333	1.04627
16.1	1.052813
16.11667	1.059844
16.13333	1.064336
16.15	1.072246
16.16667	1.087676
16.18333	1.109356
16.2	1.135527
16.21667	1.162383
16.23333	1.191777
16.25	1.226738
16.26667	1.26541
16.28333	1.303398
16.3	1.340117
16.31667	1.382109
16.33333	1.432109
16.35	1.49168
16.36667	1.565899
16.38333	1.654473
16.4	1.755352
16.41667	1.867168
16.43333	1.994121
16.45	2.141387
16.46667	2.314629
16.48333	2.52459
16.5	2.787969
16.51667	3.132207
16.53333	3.581133
16.55	4.149004
16.56667	4.846759
16.58333	5.689044
16.6	6.697638
16.61667	7.889434
16.63333	9.262579
16.65	10.78738
16.66667	12.42264
16.68333	14.12537
16.7	15.841
16.71667	17.49744
16.73333	19.01912
16.75	20.33738
16.76667	21.39461
16.78333	22.1532
16.8	22.59227
16.81667	22.70701
16.83333	22.5201
16.85	22.08182
16.86667	21.44353
16.88333	20.65232
16.9	19.76238
16.91667	18.82937
16.93333	17.89539
16.95	16.98816
16.96667	16.13094
16.98333	15.3407
17	14.62088
17.01667	13.9576
17.03333	13.33211
17.05	12.72801
17.06667	12.1366
17.08333	11.54744
17.1	10.94246
17.11667	10.30672
17.13333	9.647441
17.15	8.990313
17.16667	8.348711
17.18333	7.723125
17.2	7.117266
17.21667	6.540216
17.23333	5.996466
17.25	5.484259
17.26667	5.004766
17.28333	4.565606
17.3	4.171563
17.31667	3.819415
17.33333	3.504082
17.35	3.223516
17.36667	2.976348
17.38333	2.755547
17.4	2.556914
17.41667	2.38582
17.43333	2.243535
17.45	2.124297
17.46667	2.017949
17.48333	1.917949
17.5	1.825664
17.51667	1.745684
17.53333	1.675274
17.55	1.610039
17.56667	1.551543
17.58333	1.499883
17.6	1.451641
17.61667	1.406816
17.63333	1.375469
17.65	1.358086
17.66667	1.351836
17.68333	1.352031
17.7	1.357305
17.71667	1.368828
17.73333	1.387871
17.75	1.415508
17.76667	1.44998
17.78333	1.495195
17.8	1.555156
17.81667	1.631426
17.83333	1.725273
17.85	1.837871
17.86667	1.961504
17.88333	2.082793
17.9	2.199004
17.91667	2.318828
17.93333	2.443633
17.95	2.561016
17.96667	2.6575
17.98333	2.73123
18	2.781133
18.01667	2.803301
18.03333	2.798125
18.05	2.775664
18.06667	2.744805
18.08333	2.700957
18.1	2.633184
18.11667	2.54041
18.13333	2.434355
18.15	2.328203
18.16667	2.230547
18.18333	2.144023
18.2	2.066582
18.21667	1.997344
18.23333	1.937188
18.25	1.878301
18.26667	1.813555
18.28333	1.749883
18.3	1.699395
18.31667	1.66043
18.33333	1.625078
18.35	1.595879
18.36667	1.57625
18.38333	1.557305
18.4	1.535137
18.41667	1.514531
18.43333	1.503496
18.45	1.496465
18.46667	1.48543
18.48333	1.470781
18.5	1.456914
18.51667	1.446465
18.53333	1.440703
18.55	1.438359
18.56667	1.439629
18.58333	1.442461
18.6	1.443145
18.61667	1.438262
18.63333	1.430449
18.65	1.421856
18.66667	1.415703
18.68333	1.415703
18.7	1.417559
18.71667	1.413652
18.73333	1.406426
18.75	1.405938
18.76667	1.410039
18.78333	1.406231
18.8	1.395977
18.81667	1.388067
18.83333	1.382402
18.85	1.373809
18.86667	1.361992
18.88333	1.35457
18.9	1.359063
18.91667	1.374004
18.93333	1.386016
18.95	1.386895
18.96667	1.385234
18.98333	1.390313
19	1.397051
19.01667	1.400078
19.03333	1.404082
19.05	1.412578
19.06667	1.417168
19.08333	1.412578
19.1	1.403984
19.11667	1.400859
19.13333	1.402715
19.15	1.399785
19.16667	1.390703
19.18333	1.383965
19.2	1.388262
19.21667	1.400566
19.23333	1.412481
19.25	1.416484
19.26667	1.417656
19.28333	1.421856
19.3	1.428594
19.31667	1.42957
19.33333	1.420977
19.35	1.40877
19.36667	1.39832
19.38333	1.390508
19.4	1.384746
19.41667	1.38582
19.43333	1.394609
19.45	1.404473
19.46667	1.410625
19.48333	1.417852
19.5	1.431816
19.51667	1.449883
19.53333	1.46502
19.55	1.479668
19.56667	1.503399
19.58333	1.538652
19.6	1.580254
19.61667	1.616973
19.63333	1.641973
19.65	1.659258
19.66667	1.676738
19.68333	1.698711
19.7	1.722246
19.71667	1.746465
19.73333	1.767363
19.75	1.780254
19.76667	1.779766
19.78333	1.767949
19.8	1.753691
19.81667	1.740313
19.83333	1.727324
19.85	1.716582
19.86667	1.712285
19.88333	1.71209
19.9	1.710234
19.91667	1.705059
19.93333	1.69998
19.95	1.698809
19.96667	1.699688
19.98333	1.700274
20	1.694609
20.01667	1.685234
20.03333	1.678887
20.05	1.678789
20.06667	1.679375
20.08333	1.675762
20.1	1.673809
20.11667	1.680059
20.13333	1.689434
20.15	1.692266
20.16667	1.689043
20.18333	1.686797
20.2	1.690899
20.21667	1.699102
20.23333	1.708574
20.25	1.726738
20.26667	1.759844
20.28333	1.802422
20.3	1.844609
20.31667	1.882695
20.33333	1.91873
20.35	1.956816
20.36667	1.997344
20.38333	2.037285
20.4	2.074004
20.41667	2.11082
20.43333	2.150371
20.45	2.186992
20.46667	2.214727
20.48333	2.236797
20.5	2.256914
20.51667	2.270195
20.53333	2.274688
20.55	2.276348
20.56667	2.281523
20.58333	2.286504
20.6	2.293828
20.61667	2.312676
20.63333	2.350762
20.65	2.40916
20.66667	2.486992
20.68333	2.577813
20.7	2.674688
20.71667	2.778203
20.73333	2.893828
20.75	3.023027
20.76667	3.156621
20.78333	3.287969
20.8	3.417363
20.81667	3.542363
20.83333	3.657207
20.85	3.755743
20.86667	3.832891
20.88333	3.877325
20.9	3.882207
20.91667	3.859454
20.93333	3.825274
20.95	3.779278
20.96667	3.711309
20.98333	3.621368
21	3.522149
21.01667	3.427031
21.03333	3.338652
21.05	3.254766
21.06667	3.172734
21.08333	3.102324
21.1	3.057402
21.11667	3.043926
21.13333	3.050566
21.15	3.06707
21.16667	3.092363
21.18333	3.128789
21.2	3.170293
21.21667	3.210625
21.23333	3.252227
21.25	3.294414
21.26667	3.327617
21.28333	3.343926
21.3	3.346074
21.31667	3.345
21.33333	3.352227
21.35	3.369902
21.36667	3.389727
21.38333	3.411113
21.4	3.448027
21.41667	3.513457
21.43333	3.607012
21.45	3.723223
21.46667	3.855352
21.48333	3.995
21.5	4.132207
21.51667	4.261895
21.53333	4.379375
21.55	4.479571
21.56667	4.553399
21.58333	4.588946
21.6	4.58045
21.61667	4.538848
21.63333	4.480645
21.65	4.410723
21.66667	4.329082
21.68333	4.240801
21.7	4.15545
21.71667	4.075176
21.73333	3.998907
21.75	3.930254
21.76667	3.87586
21.78333	3.831914
21.8	3.787188
21.81667	3.73543
21.83333	3.681719
21.85	3.625176
21.86667	3.561797
21.88333	3.494024
21.9	3.424004
21.91667	3.341582
21.93333	3.237481
21.95	3.122637
21.96667	3.011895
21.98333	2.9075
22	2.806133
22.01667	2.706328
22.03333	2.608086
22.05	2.514238
22.06667	2.433672
22.08333	2.372539
22.1	2.322051
22.11667	2.269902
22.13333	2.214043
22.15	2.164434
22.16667	2.12332
22.18333	2.084941
22.2	2.049492
22.21667	2.026055
22.23333	2.019512
22.25	2.02293
22.26667	2.025567
22.28333	2.021856
22.3	2.017168
22.31667	2.021856
22.33333	2.037871
22.35	2.055449
22.36667	2.070488
22.38333	2.083672
22.4	2.093438
22.41667	2.10125
22.43333	2.108574
22.45	2.111602
22.46667	2.109258
22.48333	2.112188
22.5	2.120586
22.51667	2.122735
22.53333	2.114141
22.55	2.102715
22.56667	2.093828
22.58333	2.081816
22.6	2.064141
22.61667	2.045293
22.63333	2.028594
22.65	2.01834
22.66667	2.011309
22.68333	2.000371
22.7	1.984648
22.71667	1.977813
22.73333	1.989824
22.75	2.013457
22.76667	2.036211
22.78333	2.057305
22.8	2.087871
22.81667	2.127324
22.83333	2.172148
22.85	2.223418
22.86667	2.280645
22.88333	2.338652
22.9	2.398027
22.91667	2.469805
22.93333	2.562578
22.95	2.675566
22.96667	2.814434
22.98333	2.992168
23	3.224102
23.01667	3.525176
23.03333	3.906426
23.05	4.382207
23.06667	4.974786
23.08333	5.713263
23.1	6.611993
23.11667	7.658868
23.13333	8.838457
23.15	10.14549
23.16667	11.5535
23.18333	13.00984
23.2	14.45721
23.21667	15.84051
23.23333	17.0991
23.25	18.17303
23.26667	19.01961
23.28333	19.60975
23.3	19.9282
23.31667	19.97195
23.33333	19.75105
23.35	19.28875
23.36667	18.62615
23.38333	17.8073
23.4	16.87117
23.41667	15.85359
23.43333	14.79168
23.45	13.72137
23.46667	12.67312
23.48333	11.66746
23.5	10.72117
23.51667	9.844902
23.53333	9.040019
23.55	8.298809
23.56667	7.614825
23.58333	6.989923
23.6	6.431231
23.61667	5.941876
23.63333	5.515313
23.65	5.138067
23.66667	4.80213
23.68333	4.505352
23.7	4.24627
23.71667	4.021661
23.73333	3.827618
23.75	3.661211
23.76667	3.519609
23.78333	3.400176
23.8	3.298613
23.81667	3.206328
23.83333	3.122344
23.85	3.05584
23.86667	3.012285
23.88333	2.986309
23.9	2.969023
23.91667	2.955352
23.93333	2.942363
23.95	2.929766
23.96667	2.921465
23.98333	2.925664
24	2.945781
24.01667	2.97459
24.03333	3.000371
24.05	3.014434
24.06667	3.021758
24.08333	3.031133
24.1	3.045488
24.11667	3.062969
24.13333	3.082109
24.15	3.098809
24.16667	3.112676
24.18333	3.12293
24.2	3.130352
24.21667	3.141094
24.23333	3.156914
24.25	3.174785
24.26667	3.191094
24.28333	3.2075
24.3	3.225274
24.31667	3.247442
24.33333	3.269609
24.35	3.291094
24.36667	3.308574
24.38333	3.323125
24.4	3.337481
24.41667	3.352129
24.43333	3.366875
24.45	3.373906
24.46667	3.368926
24.48333	3.352813
24.5	3.334649
24.51667	3.318145
24.53333	3.306133
24.55	3.303887
24.56667	3.322051
24.58333	3.370488
24.6	3.460234
24.61667	3.609356
24.63333	3.839239
24.65	4.172735
24.66667	4.633868
24.68333	5.246954
24.7	6.038067
24.71667	7.031134
24.73333	8.241583
24.75	9.670878
24.76667	11.31219
24.78333	13.14842
24.8	15.14939
24.81667	17.27352
24.83333	19.46326
24.85	21.63934
24.86667	23.71414
24.88333	25.61297
24.9	27.27762
24.91667	28.64852
24.93333	29.66981
24.95	30.3119
24.96667	30.5785
24.98333	30.48641
25	30.04578
25.01667	29.28475
25.03333	28.26571
25.05	27.0661
25.06667	25.75106
25.08333	24.36492
25.1	22.94109
25.11667	21.51629
25.13333	20.12391
25.15	18.78357
25.16667	17.49461
25.18333	16.2535
25.2	15.07566
25.21667	13.98592
25.23333	12.98895
25.25	12.0618
25.26667	11.18045
25.28333	10.34188
25.3	9.552813
25.31667	8.818536
25.33333	8.14168
25.35	7.525079
25.36667	6.965509
25.38333	6.450958
25.4	5.975079
25.41667	5.54627
25.43333	5.172247
25.45	4.848614
25.46667	4.561798
25.48333	4.303496
25.5	4.071856
25.51667	3.871465
25.53333	3.706231
25.55	3.576251
25.56667	3.480059
25.58333	3.41668
25.6	3.382988
25.61667	3.376153
25.63333	3.391973
25.65	3.422637
25.66667	3.463262
25.68333	3.518633
25.7	3.591094
25.71667	3.670977
25.73333	3.745586
25.75	3.815508
25.76667	3.886993
25.78333	3.961114
25.8	4.032012
25.81667	4.09588
25.83333	4.152911
25.85	4.203496
25.86667	4.250665
25.88333	4.295977
25.9	4.334649
25.91667	4.361895
25.93333	4.382696
25.95	4.405645
25.96667	4.431426
25.98333	4.45711
26	4.479473
26.01667	4.494414
26.03333	4.494805
26.05	4.480938
26.06667	4.457403
26.08333	4.425958
26.1	4.387872
26.11667	4.343731
26.13333	4.288555
26.15	4.214336
26.16667	4.122735
26.18333	4.02
26.2	3.915704
26.21667	3.814629
26.23333	3.717657
26.25	3.624395
26.26667	3.527617
26.28333	3.421074
26.3	3.31043
26.31667	3.211406
26.33333	3.131035
26.35	3.060332
26.36667	2.991484
26.38333	2.929668
26.4	2.883281
26.41667	2.854473
26.43333	2.836797
26.45	2.825176
26.46667	2.82752
26.48333	2.855449
26.5	2.911309
26.51667	2.990703
26.53333	3.098027
26.55	3.241387
26.56667	3.421758
26.58333	3.63504
26.6	3.875469
26.61667	4.136309
26.63333	4.411798
26.65	4.69422
26.66667	4.974591
26.68333	5.239141
26.7	5.472833
26.71667	5.665899
26.73333	5.816094
26.75	5.923614
26.76667	5.983868
26.78333	5.988165
26.8	5.939141
26.81667	5.847149
26.83333	5.720977
26.85	5.563848
26.86667	5.381524
26.88333	5.184454
26.9	4.98377
26.91667	4.784942
26.93333	4.589141
26.95	4.399102
26.96667	4.218243
26.98333	4.048516
27	3.889336
27.01667	3.743438
27.03333	3.619024
27.05	3.517266
27.06667	3.432402
27.08333	3.352227
27.1	3.270586
27.11667	3.193828
27.13333	3.132793
27.15	3.094219
27.16667	3.073613
27.18333	3.062676
27.2	3.062676
27.21667	3.078887
27.23333	3.112383
27.25	3.164043
27.26667	3.238262
27.28333	3.343145
27.3	3.486016
27.31667	3.672246
27.33333	3.898125
27.35	4.165118
27.36667	4.481524
27.38333	4.854864
27.4	5.285333
27.41667	5.761895
27.43333	6.269415
27.45	6.796564
27.46667	7.337188
27.48333	7.878497
27.5	8.392071
27.51667	8.848711
27.53333	9.235039
27.55	9.553301
27.56667	9.802422
27.58333	9.968144
27.6	10.03523
27.61667	10.00213
27.63333	9.877617
27.65	9.669805
27.66667	9.393339
27.68333	9.06629
27.7	8.699297
27.71667	8.297051
27.73333	7.878985
27.75	7.469219
27.76667	7.072638
27.78333	6.682111
27.8	6.30086
27.81667	5.942462
27.83333	5.612579
27.85	5.309942
27.86667	5.036505
27.88333	4.792364
27.9	4.576837
27.91667	4.387286
27.93333	4.219512
27.95	4.066973
27.96667	3.930547
27.98333	3.817657
28	3.72625
28.01667	3.644024
28.03333	3.564922
28.05	3.495781
28.06667	3.441777
28.08333	3.39666
28.1	3.353399
28.11667	3.310625
28.13333	3.27166
28.15	3.233086
28.16667	3.190898
28.18333	3.145586
28.2	3.104863
28.21667	3.075078
28.23333	3.054863
28.25	3.042852
28.26667	3.035625
28.28333	3.028594
28.3	3.02293
28.31667	3.027812
28.33333	3.052422
28.35	3.088164
28.36667	3.124395
28.38333	3.166875
28.4	3.228692
28.41667	3.304277
28.43333	3.377715
28.45	3.448125
28.46667	3.527129
28.48333	3.617071
28.5	3.707696
28.51667	3.790215
28.53333	3.864922
28.55	3.936016
28.56667	4.013165
28.58333	4.103106
28.6	4.201348
28.61667	4.29754
28.63333	4.38836
28.65	4.478497
28.66667	4.567266
28.68333	4.65086
28.7	4.726153
28.71667	4.79256
28.73333	4.846856
28.75	4.882501
28.76667	4.892852
28.78333	4.877227
28.8	4.840606
28.81667	4.786114
28.83333	4.711212
28.85	4.619317
28.86667	4.521758
28.88333	4.427618
28.9	4.334356
28.91667	4.236016
28.93333	4.134551
28.95	4.039043
28.96667	3.954473
28.98333	3.877227
29	3.809161
29.01667	3.754961
29.03333	3.71375
29.05	3.680645
29.06667	3.660918
29.08333	3.663262
29.1	3.684844
29.11667	3.716973
29.13333	3.756036
29.15	3.812969
29.16667	3.896465
29.18333	4.009942
29.2	4.153399
29.21667	4.332793
29.23333	4.552423
29.25	4.807013
29.26667	5.091973
29.28333	5.409942
29.3	5.757989
29.31667	6.122442
29.33333	6.487872
29.35	6.843732
29.36667	7.180449
29.38333	7.481719
29.4	7.729766
29.41667	7.909747
29.43333	8.018536
29.45	8.058184
29.46667	8.029766
29.48333	7.933477
29.5	7.772637
29.51667	7.556036
29.53333	7.299981
29.55	7.021564
29.56667	6.733869
29.58333	6.444806
29.6	6.15838
29.61667	5.876153
29.63333	5.601446
29.65	5.342657
29.66667	5.108282
29.68333	4.898419
29.7	4.705352
29.71667	4.521563
29.73333	4.346953
29.75	4.189141
29.76667	4.056036
29.78333	3.948711
29.8	3.854571
29.81667	3.762481
29.83333	3.670293
29.85	3.583868
29.86667	3.508184
29.88333	3.445977
29.9	3.401934
29.91667	3.374395
29.93333	3.351836
29.95	3.331621
29.96667	3.317168
29.98333	3.317949
30	3.331328
30.01667	3.355547
30.03333	3.395488
30.05	3.45457
30.06667	3.532891
30.08333	3.634161
30.1	3.761407
30.11667	3.908379
30.13333	4.061504
30.15	4.21375
30.16667	4.371075
30.18333	4.53836
30.2	4.716485
30.21667	4.904864
30.23333	5.103692
30.25	5.315606
30.26667	5.546856
30.28333	5.813458
30.3	6.135138
30.31667	6.531036
30.33333	7.012677
30.35	7.582012
30.36667	8.245489
30.38333	9.012481
30.4	9.88582
30.41667	10.85086
30.43333	11.87605
30.45	12.92068
30.46667	13.94588
30.48333	14.91639
30.5	15.79158
30.51667	16.52664
30.53333	17.091
30.55	17.46863
30.56667	17.64842
30.58333	17.62683
30.6	17.41063
30.61667	17.01961
30.63333	16.47996
30.65	15.81609
30.66667	15.05916
30.68333	14.24529
30.7	13.41365
30.71667	12.59109
30.73333	11.78572
30.75	10.99969
30.76667	10.24676
30.78333	9.547539
30.8	8.913751
30.81667	8.340117
30.83333	7.815313
30.85	7.340801
30.86667	6.921564
30.88333	6.553693
30.9	6.221173
30.91667	5.91961
30.93333	5.658966
30.95	5.442755
30.96667	5.255939
30.98333	5.081036
31	4.915509
31.01667	4.767657
31.03333	4.637481
31.05	4.517657
31.06667	4.403497
31.08333	4.29461
31.1	4.190313
31.11667	4.090606
31.13333	4.000079
31.15	3.920977
31.16667	3.850372
31.18333	3.783868
31.2	3.720098
31.21667	3.65711
31.23333	3.597051
31.25	3.550273
31.26667	3.524883
31.28333	3.51375
31.3	3.500859
31.31667	3.47918
31.33333	3.458184
31.35	3.444414
31.36667	3.44334
31.38333	3.456231
31.4	3.476836
31.41667	3.496465
31.43333	3.508477
31.45	3.515703
31.46667	3.519609
31.48333	3.520684
31.5	3.520879
31.51667	3.518633
31.53333	3.511309
31.55	3.499688
31.56667	3.48709
31.58333	3.468926
31.6	3.441777
31.61667	3.412285
31.63333	3.382988
31.65	3.350859
31.66667	3.315117
31.68333	3.282207
31.7	3.25916
31.71667	3.245781
31.73333	3.23377
31.75	3.219023
31.76667	3.201836
31.78333	3.187676
31.8	3.178203
31.81667	3.171074
31.83333	3.165996
31.85	3.168926
31.86667	3.186113
31.88333	3.215508
31.9	3.243828
31.91667	3.260234
31.93333	3.270684
31.95	3.286016
31.96667	3.30252
31.98333	3.312969
32	3.324492
32.01667	3.345195
32.03333	3.366387
32.05	3.378691
32.06667	3.389922
32.08333	3.408867
32.1	3.432109
32.11667	3.454961
32.13333	3.475176
32.15	3.497735
32.16667	3.525664
32.18333	3.558575
32.2	3.588653
32.21667	3.608868
32.23333	3.623028
32.25	3.63045
32.26667	3.627911
32.28333	3.619317
32.3	3.614239
32.31667	3.611797
32.33333	3.602618
32.35	3.58543
32.36667	3.564922
32.38333	3.543633
32.4	3.519316
32.41667	3.495488
32.43333	3.476055
32.45	3.464434
32.46667	3.45584
32.48333	3.441777
32.5	3.424492
32.51667	3.41043
32.53333	3.39832
32.55	3.386016
32.56667	3.377617
32.58333	3.375371
32.6	3.369121
32.61667	3.351152
32.63333	3.33084
32.65	3.314629
32.66667	3.307695
32.68333	3.308086
32.7	3.308574
32.71667	3.30291
32.73333	3.289531
32.75	3.273809
32.76667	3.261016
32.78333	3.250957
32.8	3.237969
32.81667	3.219023
32.83333	3.198613
32.85	3.181524
32.86667	3.167949
32.88333	3.15291
32.9	3.141289
32.91667	3.136895
32.93333	3.136797
32.95	3.135918
32.96667	3.130547
32.98333	3.118926
33	3.103496
33.01667	3.091973
33.03333	3.089141
33.05	3.098125
33.06667	3.120098
33.08333	3.141875
33.1	3.15457
33.11667	3.164141
33.13333	3.185918
33.15	3.225176
33.16667	3.275176
33.18333	3.332891
33.2	3.403789
33.21667	3.491777
33.23333	3.593536
33.25	3.702032
33.26667	3.813262
33.28333	3.92459
33.3	4.031426
33.31667	4.133282
33.33333	4.229375
33.35	4.311212
33.36667	4.370879
33.38333	4.415118
33.4	4.448907
33.41667	4.461895
33.43333	4.44461
33.45	4.407305
33.46667	4.366582
33.48333	4.324883
33.5	4.272735
33.51667	4.205352
33.53333	4.129571
33.55	4.056036
33.56667	3.987969
33.58333	3.920586
33.6	3.854961
33.61667	3.792071
33.63333	3.728301
33.65	3.661504
33.66667	3.602715
33.68333	3.559063
33.7	3.521074
33.71667	3.479961
33.73333	3.439727
33.75	3.409258
33.76667	3.389922
33.78333	3.37918
33.8	3.370293
33.81667	3.358184
33.83333	3.345098
33.85	3.334551
33.86667	3.327715
33.88333	3.322149
33.9	3.317656
33.91667	3.314824
33.93333	3.311504
33.95	3.307891
33.96667	3.30877
33.98333	3.31375
34	3.317656
34.01667	3.316875
34.03333	3.314336
34.05	3.312676
34.06667	3.310723
34.08333	3.308184
34.1	3.307891
34.11667	3.311602
34.13333	3.316777
34.15	3.322051
34.16667	3.323809
34.18333	3.319024
34.2	3.307109
34.21667	3.287285
34.23333	3.267656
34.25	3.259453
34.26667	3.263945
34.28333	3.273809
34.3	3.27752
34.31667	3.271074
34.33333	3.257402
34.35	3.243438
34.36667	3.235137
34.38333	3.2325
34.4	3.228887
34.41667	3.221563
34.43333	3.214824
34.45	3.212481
34.46667	3.211797
34.48333	3.208379
34.5	3.204375
34.51667	3.20418
34.53333	3.210332
34.55	3.224199
34.56667	3.243145
34.58333	3.256231
34.6	3.256133
34.61667	3.248906
34.63333	3.247246
34.65	3.254375
34.66667	3.264531
34.68333	3.270391
34.7	3.271074
34.71667	3.269707
34.73333	3.27127
34.75	3.283379
34.76667	3.30125
34.78333	3.311895
34.8	3.311406
34.81667	3.306621
34.83333	3.301445
34.85	3.291875
34.86667	3.280449
34.88333	3.275078
34.9	3.275176
34.91667	3.27332
34.93333	3.270586
34.95	3.273223
34.96667	3.284453
34.98333	3.300371
35	3.314043
35.01667	3.317852
35.03333	3.311504
35.05	3.302227
35.06667	3.293242
35.08333	3.282403
35.1	3.272637
35.11667	3.272539
35.13333	3.282305
35.15	3.286406
35.16667	3.276152
35.18333	3.26375
35.2	3.261992
35.21667	3.269121
35.23333	3.274785
35.25	3.275078
35.26667	3.276934
35.28333	3.283574
35.3	3.29041
35.31667	3.292949
35.33333	3.29373
35.35	3.298028
35.36667	3.306426
35.38333	3.311016
35.4	3.306719
35.41667	3.297734
35.43333	3.292363
35.45	3.290508
35.46667	3.289922
35.48333	3.293535
35.5	3.302813
35.51667	3.310137
35.53333	3.312188
35.55	3.311797
35.56667	3.309453
35.58333	3.302617
35.6	3.296172
35.61667	3.296758
35.63333	3.30252
35.65	3.308672
35.66667	3.314141
35.68333	3.32166
35.7	3.328691
35.71667	3.33377
35.73333	3.337676
35.75	3.338848
35.76667	3.334941
35.78333	3.329473
35.8	3.327617
35.81667	3.330156
35.83333	3.333574
35.85	3.337481
35.86667	3.343535
35.88333	3.348223
35.9	3.34832
35.91667	3.346367
35.93333	3.349688
35.95	3.358477
35.96667	3.36834
35.98333	3.374395
36	3.37791
36.01667	3.381719
36.03333	3.382109
36.05	3.375078
36.06667	3.365215
36.08333	3.363164
36.1	3.372832
36.11667	3.383867
36.13333	3.386602
36.15	3.379961
36.16667	3.374785
36.18333	3.37918
36.2	3.386504
36.21667	3.385234
36.23333	3.377324
36.25	3.376641
36.26667	3.387969
36.28333	3.400957
36.3	3.402227
36.31667	3.389238
36.33333	3.37293
36.35	3.366582
36.36667	3.378398
36.38333	3.398516
36.4	3.412188
36.41667	3.412774
36.43333	3.411211
36.45	3.413555
36.46667	3.413262
36.48333	3.405352
36.5	3.395488
36.51667	3.393535
36.53333	3.398809
36.55	3.408477
36.56667	3.415996
36.58333	3.424297
36.6	3.435918
36.61667	3.444219
36.63333	3.439922
36.65	3.42625
36.66667	3.417656
36.68333	3.418437
36.7	3.42
36.71667	3.417266
36.73333	3.416484
36.75	3.421465
36.76667	3.426934
36.78333	3.428789
36.8	3.42957
36.81667	3.432305
36.83333	3.435625
36.85	3.437969
36.86667	3.438359
36.88333	3.438457
36.9	3.443242
36.91667	3.456328
36.93333	3.47
36.95	3.47625
36.96667	3.478399
36.98333	3.483867
37	3.494219
37.01667	3.502129
37.03333	3.502422
37.05	3.492266
37.06667	3.47918
37.08333	3.474492
37.1	3.478984
37.11667	3.482305
37.13333	3.480254
37.15	3.474199
37.16667	3.468633
37.18333	3.468242
37.2	3.47293
37.21667	3.47625
37.23333	3.47332
37.25	3.46873
37.26667	3.471856
37.28333	3.48875
37.3	3.512774
37.31667	3.531133
37.33333	3.536797
37.35	3.529375
37.36667	3.517168
37.38333	3.509746
37.4	3.509063
37.41667	3.510332
37.43333	3.50877
37.45	3.508379
37.46667	3.513945
37.48333	3.524199
37.5	3.536113
37.51667	3.547441
37.53333	3.556622
37.55	3.555254
37.56667	3.541192
37.58333	3.522637
37.6	3.515703
37.61667	3.52166
37.63333	3.532695
37.65	3.537383
37.66667	3.536992
37.68333	3.537285
37.7	3.540606
37.71667	3.541192
37.73333	3.535527
37.75	3.526934
37.76667	3.520684
37.78333	3.517852
37.8	3.516289
37.81667	3.517168
37.83333	3.521074
37.85	3.52918
37.86667	3.539727
37.88333	3.546367
37.9	3.548418
37.91667	3.549981
37.93333	3.553594
37.95	3.556329
37.96667	3.558672
37.98333	3.561114
38	3.561602
38.01667	3.557891
38.03333	3.553301
38.05	3.553887
38.06667	3.557305
38.08333	3.559747
38.1	3.56209
38.11667	3.567266
38.13333	3.575469
38.15	3.58084
38.16667	3.586114
38.18333	3.59334
38.2	3.595977
38.21667	3.590899
38.23333	3.584356
38.25	3.58377
38.26667	3.585723
38.28333	3.584356
38.3	3.584942
38.31667	3.597735
38.33333	3.619024
38.35	3.629571
38.36667	3.625664
38.38333	3.62127
38.4	3.623516
38.41667	3.626934
38.43333	3.628789
38.45	3.633575
38.46667	3.640899
38.48333	3.648125
38.5	3.653203
38.51667	3.653301
38.53333	3.648711
38.55	3.642852
38.56667	3.640313
38.58333	3.642364
38.6	3.647832
38.61667	3.652911
38.63333	3.653497
38.65	3.652032
38.66667	3.651446
38.68333	3.651739
38.7	3.650567
38.71667	3.65584
38.73333	3.671758
38.75	3.687676
38.76667	3.692364
38.78333	3.685626
38.8	3.674981
38.81667	3.666094
38.83333	3.664727
38.85	3.672344
38.86667	3.682989
38.88333	3.686211
38.9	3.680547
38.91667	3.675079
38.93333	3.678887
38.95	3.691387
38.96667	3.706524
38.98333	3.71834
39	3.724688
39.01667	3.721075
39.03333	3.70877
39.05	3.702032
39.06667	3.712481
39.08333	3.736211
39.1	3.757305
39.11667	3.767461
39.13333	3.772051
39.15	3.782598
39.16667	3.800372
39.18333	3.821075
39.2	3.842657
39.21667	3.863067
39.23333	3.876641
39.25	3.878399
39.26667	3.877129
39.28333	3.888653
39.3	3.914922
39.31667	3.940801
39.33333	3.956036
39.35	3.963946
39.36667	3.975372
39.38333	3.99793
39.4	4.031133
39.41667	4.070001
39.43333	4.107305
39.45	4.139629
39.46667	4.165508
39.48333	4.183282
39.5	4.202422
39.51667	4.232696
39.53333	4.274493
39.55	4.316875
39.56667	4.356231
39.58333	4.393438
39.6	4.427032
39.61667	4.458379
39.63333	4.495196
39.65	4.541485
39.66667	4.588555
39.68333	4.625762
39.7	4.655938
39.71667	4.69168
39.73333	4.737774
39.75	4.787774
39.76667	4.83377
39.78333	4.872833
39.8	4.905645
39.81667	4.936603
39.83333	4.970489
39.85	5.010138
39.86667	5.05252
39.88333	5.095098
39.9	5.137188
39.91667	5.179864
39.93333	5.226739
39.95	5.274981
39.96667	5.31922
39.98333	5.358087
40	5.396368
40.01667	5.440899
40.03333	5.488946
40.05	5.533771
40.06667	5.572735
40.08333	5.61502
40.1	5.664532
40.11667	5.71629
40.13333	5.76502
40.15	5.812286
40.16667	5.859942
40.18333	5.907012
40.2	5.954766
40.21667	6.002423
40.23333	6.049688
40.25	6.095782
40.26667	6.140997
40.28333	6.188848
40.3	6.23963
40.31667	6.290215
40.33333	6.33504
40.35	6.378302
40.36667	6.42547
40.38333	6.474884
40.4	6.525177
40.41667	6.575665
40.43333	6.619708
40.45	6.654376
40.46667	6.686603
40.48333	6.723907
40.5	6.76131
40.51667	6.792267
40.53333	6.820099
40.55	6.854962
40.56667	6.899689
40.58333	6.953107
40.6	7.012482
40.61667	7.074005
40.63333	7.134551
40.65	7.195782
40.66667	7.255059
40.68333	7.301543
40.7	7.32879
40.71667	7.342559
40.73333	7.349493
40.75	7.346075
40.76667	7.328399
40.78333	7.308282
40.8	7.29754
40.81667	7.290411
40.83333	7.279668
40.85	7.270489
40.86667	7.269122
40.88333	7.268536
40.9	7.265118
40.91667	7.264043
40.93333	7.270098
40.95	7.287871
40.96667	7.311114
40.98333	7.334356
41	7.35086
41.01667	7.365508
41.03333	7.381621
41.05	7.398223
41.06667	7.415997
41.08333	7.429473
41.1	7.439336
41.11667	7.44959
41.13333	7.46209
41.15	7.476348
41.16667	7.49754
41.18333	7.526544
41.2	7.55877
41.21667	7.58504
41.23333	7.603692
41.25	7.619512
41.26667	7.638555
41.28333	7.662676
41.3	7.685626
41.31667	7.704766
41.33333	7.723809
41.35	7.748809
41.36667	7.775372
41.38333	7.796368
41.4	7.805645
41.41667	7.804961
41.43333	7.799102
41.45	7.793633
41.46667	7.793145
41.48333	7.79959
41.5	7.811212
41.51667	7.822247
41.53333	7.829669
41.55	7.837774
41.56667	7.84959
41.58333	7.862774
41.6	7.875665
41.61667	7.89129
41.63333	7.911407
41.65	7.928106
41.66667	7.936114
41.68333	7.943438
41.7	7.958965
41.71667	7.982891
41.73333	8.010039
41.75	8.034356
41.76667	8.048614
41.78333	8.052032
41.8	8.057891
41.81667	8.078497
41.83333	8.107306
41.85	8.127031
41.86667	8.130352
41.88333	8.132012
41.9	8.146074
41.91667	8.171075
41.93333	8.193926
41.95	8.211407
41.96667	8.220196
41.98333	8.218145
42	8.211016
42.01667	8.211504
42.03333	8.22293
42.05	8.238555
42.06667	8.248907
42.08333	8.248419
42.1	8.244414
42.11667	8.25086
42.13333	8.269512
42.15	8.284063
42.16667	8.283184
42.18333	8.281622
42.2	8.29461
42.21667	8.313165
42.23333	8.318731
42.25	8.314239
42.26667	8.313848
42.28333	8.324004
42.3	8.335137
42.31667	8.341094
42.33333	8.344219
42.35	8.352227
42.36667	8.368048
42.38333	8.38543
42.4	8.395977
42.41667	8.394903
42.43333	8.38543
42.45	8.378594
42.46667	8.381524
42.48333	8.3867
42.5	8.383867
42.51667	8.378887
42.53333	8.381621
42.55	8.389337
42.56667	8.39295
42.58333	8.39129
42.6	8.387188
42.61667	8.388165
42.63333	8.404571
42.65	8.432598
42.66667	8.455938
42.68333	8.45877
42.7	8.44832
42.71667	8.43875
42.73333	8.436797
42.75	8.445977
42.76667	8.461114
42.78333	8.467852
42.8	8.457208
42.81667	8.434356
42.83333	8.408672
42.85	8.38172
42.86667	8.357598
42.88333	8.34129
42.9	8.324102
42.91667	8.298809
42.93333	8.272051
42.95	8.259942
42.96667	8.271563
42.98333	8.299102
43	8.330743
43.01667	8.357403
43.03333	8.379766
43.05	8.399883
43.06667	8.420098
43.08333	8.439922
43.1	8.455156
43.11667	8.456133
43.13333	8.432501
43.15	8.371856
43.16667	8.269512
43.18333	8.131231
43.2	7.964727
43.21667	7.770098
43.23333	7.550372
43.25	7.311797
43.26667	7.062189
43.28333	6.808966
43.3	6.564337
43.31667	6.33963
43.33333	6.133673
43.35	5.939532
43.36667	5.750958
43.38333	5.564532
43.4	5.38338
43.41667	5.213946
43.43333	5.056231
43.45	4.903594
43.46667	4.751446
43.48333	4.605352
43.5	4.46961
43.51667	4.339629
43.53333	4.211895
43.55	4.087286
43.56667	3.96961
43.58333	3.860137
43.6	3.752715
43.61667	3.645489
43.63333	3.539531
43.65	3.434453
43.66667	3.332012
43.68333	3.231621
43.7	3.131816
43.71667	3.03123
43.73333	2.933184
43.75	2.84334
43.76667	2.760918
43.78333	2.681133
43.8	2.604668
43.81667	2.53084
43.83333	2.455742
43.85	2.376836
43.86667	2.296465
43.88333	2.219121
43.9	2.145391
43.91667	2.076152
43.93333	2.013945
43.95	1.956524
43.96667	1.897442
43.98333	1.836211
44	1.77957
44.01667	1.728887
44.03333	1.676836
44.05	1.616094
44.06667	1.549883
44.08333	1.490801
44.1	1.444902
44.11667	1.407012
44.13333	1.371855
44.15	1.337676
44.16667	1.302813
44.18333	1.266582
44.2	1.230938
44.21667	1.198809
44.23333	1.166289
44.25	1.130059
44.26667	1.090703
44.28333	1.055645
44.3	1.02918
44.31667	1.007988
44.33333	0.9884571
44.35	0.970586
44.36667	0.9505665
44.38333	0.9197071
44.4	0.8804493
44.41667	0.8456837
44.43333	0.8241993
44.45	0.8119923
44.46667	0.8028126
44.48333	0.7919728
44.5	0.7789844
44.51667	0.7642384
44.53333	0.7500782
44.55	0.7377735
44.56667	0.7267383
44.58333	0.7106251
44.6	0.6855274
44.61667	0.6567189
44.63333	0.6264454
44.65	0.5985157
44.66667	0.5750782
44.68333	0.5575001
44.7	0.5441211
44.71667	0.5266407
44.73333	0.5034962
44.75	0.4780079
44.76667	0.4536915
44.78333	0.4263477
44.8	0.3971485
44.81667	0.370879
44.83333	0.3484181
44.85	0.3314258
44.86667	0.3155079
44.88333	0.2997852
44.9	0.2807423
44.91667	0.2592579
44.93333	0.2375782
44.95	0.2179493
44.96667	0.2030079
44.98333	0.192461
45	0.1851368
45.01667	0.1763477
45.03333	0.1611134
45.05	0.1397266
45.06667	0.1232227
45.08333	0.1217579
45.1	0.1310352
45.11667	0.1373829
45.13333	0.1316212
45.15	0.1170704
45.16667	0.1043751
45.18333	0.09880867
45.2	0.09421883
45.21667	0.08669929
45.23333	0.08025398
45.25	0.07742195
45.26667	0.07253914
45.28333	0.06511726
45.3	0.05964851
45.31667	0.05330086
45.33333	0.04109383
45.35	0.02537117
45.36667	0.01736336
45.38333	0.01814461
45.4	0.02000008
45.41667	0.0172657
45.43333	0.01130867
45.45	0.007793045
45.46667	0.01140633
45.48333	0.02019539
45.5	0.02244148
45.51667	0.01316414
45.53333	-0.001288986
45.55	-0.01310539
45.56667	-0.02082024
45.58333	-0.02462883
45.6	-0.02394524
45.61667	-0.02394524
45.63333	-0.02873039
45.65	-0.03634758
45.66667	-0.04230461
45.68333	-0.04503899
45.7	-0.04455071
45.71667	-0.03908195
45.73333	-0.03400383
45.75	-0.03957023
45.76667	-0.05695305
45.78333	-0.07326164
45.8	-0.07628898
45.81667	-0.07033195
45.83333	-0.06759758
45.85	-0.07287101
45.86667	-0.08195305
45.88333	-0.08849601
45.9	-0.09220695
45.91667	-0.09572258
45.93333	-0.09962883
45.95	-0.09884758
45.96667	-0.08908196
45.98333	-0.07638665
46	-0.06759758
46.01667	-0.06593742
46.03333	-0.06808586
46.05	-0.06974602
46.06667	-0.06955071
46.08333	-0.06837883
46.1	-0.06779289
46.11667	-0.0686718
46.13333	-0.07238273
46.15	-0.07707024
46.16667	-0.07765617
46.18333	-0.07199211
46.2	-0.0664257
46.21667	-0.06681633
46.23333	-0.07091789
46.25	-0.07638665
46.26667	-0.08302727
46.28333	-0.0883007
46.3	-0.0905468
46.31667	-0.09123039
46.33333	-0.09171867
46.35	-0.09308586
46.36667	-0.09708977
46.38333	-0.1011913
46.4	-0.1019726
46.41667	-0.09806633
46.43333	-0.09630851
46.45	-0.1023632
46.46667	-0.1152538
46.48333	-0.129121
46.5	-0.1370312
46.51667	-0.1312695
46.53333	-0.1157421
46.55	-0.09777336
46.56667	-0.08615227
46.58333	-0.08380852
46.6	-0.08751945
46.61667	-0.09748039
46.63333	-0.1083202
46.65	-0.1133984
46.66667	-0.1081249
46.68333	-0.1034374
46.7	-0.1122265
46.71667	-0.1284374
46.73333	-0.1376171
46.75	-0.1352734
46.76667	-0.1324413
46.78333	-0.1324413
46.8	-0.1308788
46.81667	-0.1253124
46.83333	-0.1196484
46.85	-0.1179882
46.86667	-0.122578
46.88333	-0.1248241
46.9	-0.1160351
46.91667	-0.1013866
46.93333	-0.09376945
46.95	-0.1026562
46.96667	-0.1177929
46.98333	-0.1277538
47	-0.1258007
47.01667	-0.1182812
47.03333	-0.1154491
47.05	-0.119746
47.06667	-0.1241405
47.08333	-0.1254101
47.1	-0.126582
47.11667	-0.1280468
47.13333	-0.1289257
47.15	-0.126582
47.16667	-0.1221874
47.18333	-0.116914
47.2	-0.1127148
47.21667	-0.1120312
47.23333	-0.1125195
47.25	-0.1115429
47.26667	-0.1057812
47.28333	-0.09582023
47.3	-0.08703117
47.31667	-0.08624993
47.33333	-0.09406243
47.35	-0.1040234
47.36667	-0.1108593
47.38333	-0.1138866
47.4	-0.1131054
47.41667	-0.1087109
47.43333	-0.1077343
47.45	-0.1119335
47.46667	-0.1145702
47.48333	-0.1124218
47.5	-0.1122265
47.51667	-0.1177929
47.53333	-0.1255077
47.55	-0.1277538
47.56667	-0.1235546
47.58333	-0.1173046
47.6	-0.1145702
47.61667	-0.1173046
47.63333	-0.123457
47.65	-0.1283398
47.66667	-0.1292187
47.68333	-0.126582
47.7	-0.1235546
47.71667	-0.1219921
47.73333	-0.1236523
47.75	-0.1303906
47.76667	-0.1406445
47.78333	-0.1460156
47.8	-0.144453
47.81667	-0.1411327
47.83333	-0.138789
47.85	-0.1369335
47.86667	-0.1344921
47.88333	-0.1340038
47.9	-0.1371288
47.91667	-0.1371288
47.93333	-0.1308788
47.95	-0.1251171
47.96667	-0.1268749
47.98333	-0.1331249
48	-0.132539
48.01667	-0.1270702
48.03333	-0.1247265
48.05	-0.1235546
48.06667	-0.1209179
48.08333	-0.1220898
48.1	-0.1307812
48.11667	-0.1402538
48.13333	-0.1429882
48.15	-0.1411327
48.16667	-0.1370312
48.18333	-0.1309765
48.2	-0.1233593
48.21667	-0.1127148
48.23333	-0.1002148
48.25	-0.08976555
48.26667	-0.08566399
48.28333	-0.08546867
48.3	-0.08800773
48.31667	-0.1002148
48.33333	-0.1219921
48.35	-0.1406445
48.36667	-0.1420116
48.38333	-0.1321484
48.4	-0.1269726
48.41667	-0.125996
48.43333	-0.1224804
48.45	-0.1153515
48.46667	-0.1101757
48.48333	-0.1079296
48.5	-0.1022656
48.51667	-0.08781242
48.53333	-0.07531242
48.55	-0.0796093
48.56667	-0.1008984
48.58333	-0.1198437
48.6	-0.1205273
48.61667	-0.1068554
48.63333	-0.09318352
48.65	-0.0883007
48.66667	-0.09035148
48.68333	-0.0936718
48.7	-0.09884758
48.71667	-0.104414
48.73333	-0.1113476
48.75	-0.1139843
48.76667	-0.1105663
48.78333	-0.1051952
48.8	-0.104414
48.81667	-0.1080273
48.83333	-0.1116406
48.85	-0.110664
48.86667	-0.1046093
48.88333	-0.09552727
48.9	-0.08771477
48.91667	-0.08546867
48.93333	-0.08957024
48.95	-0.09796868
48.96667	-0.1053905
48.98333	-0.1091991
49	-0.1127148
49.01667	-0.1147655
49.03333	-0.1142773
49.05	-0.1135937
49.06667	-0.1118359
49.08333	-0.1058788
49.1	-0.09874992
49.11667	-0.09972648
49.13333	-0.1115429
49.15	-0.1268749
49.16667	-0.1388866
49.18333	-0.1411327
49.2	-0.131953
49.21667	-0.1209179
49.23333	-0.1155468
49.25	-0.1173046
49.26667	-0.1217968
49.28333	-0.1247265
49.3	-0.1227734
49.31667	-0.1165234
49.33333	-0.1108593
49.35	-0.1091015
49.36667	-0.1071484
49.38333	-0.1037304
49.4	-0.1037304
49.41667	-0.1088085
49.43333	-0.1148632
49.45	-0.1189648
49.46667	-0.120332
49.48333	-0.1157421
49.5	-0.1043163
49.51667	-0.0921093
49.53333	-0.08595695
49.55	-0.08498039
49.56667	-0.08507805
49.58333	-0.08107414
49.6	-0.07736321
49.61667	-0.0827343
49.63333	-0.09640618
49.65	-0.1084179
49.66667	-0.1138866
49.68333	-0.1183788
49.7	-0.1257031
49.71667	-0.1316601
49.73333	-0.1290234
49.75	-0.1198437
49.76667	-0.1116406
49.78333	-0.1070507
49.8	-0.1005077
49.81667	-0.08927727
49.83333	-0.08390617
49.85	-0.0921093
49.86667	-0.1107616
49.88333	-0.1266796
49.9	-0.1331249
49.91667	-0.132246
49.93333	-0.1289257
49.95	-0.1247265
49.96667	-0.1177929
49.98333	-0.1083202
50	-0.09943352
50.01667	-0.09640618
50.03333	-0.1011913
50.05	-0.1088085
50.06667	-0.1113476
50.08333	-0.104414
50.1	-0.09542961
50.11667	-0.09533195
50.13333	-0.1037304
50.15	-0.1122265
50.16667	-0.1186718
50.18333	-0.1249218
50.2	-0.1271679
50.21667	-0.1210155
50.23333	-0.1108593
50.25	-0.1043163
50.26667	-0.1029491
50.28333	-0.1035351
50.3	-0.1042187
50.31667	-0.1038281
50.33333	-0.1029491
50.35	-0.1027538
50.36667	-0.1038281
50.38333	-0.1070507
50.4	-0.1135937
50.41667	-0.1220898
50.43333	-0.1271679
50.45	-0.1253124
50.46667	-0.1207226
50.48333	-0.1184765
50.5	-0.1190624
50.51667	-0.1178906
50.53333	-0.1096874
50.55	-0.09748039
50.56667	-0.0914257
50.58333	-0.09621086
50.6	-0.1028515
50.61667	-0.1021679
50.63333	-0.09728508
50.65	-0.09865227
50.66667	-0.1087109
50.68333	-0.1206249
50.7	-0.1245312
50.71667	-0.1199413
50.73333	-0.1114452
50.75	-0.1021679
50.76667	-0.09308586
50.78333	-0.09083977
50.8	-0.09943352
50.81667	-0.1141796
50.83333	-0.1266796
50.85	-0.1337109
50.86667	-0.1372265
50.88333	-0.1344921
50.9	-0.126582
50.91667	-0.1209179
50.93333	-0.1230663
50.95	-0.126289
50.96667	-0.1244335
50.98333	-0.1192577
51	-0.1112499
51.01667	-0.09982415
51.03333	-0.08849601
51.05	-0.08664055
51.06667	-0.09396477
51.08333	-0.1051952
51.1	-0.1145702
51.11667	-0.1170116
51.13333	-0.1108593
51.15	-0.1016796
51.16667	-0.1005077
51.18333	-0.1091991
51.2	-0.1195507
51.21667	-0.1230663
51.23333	-0.1189648
51.25	-0.1092968
51.26667	-0.09748039
51.28333	-0.08996086
51.3	-0.09484367
51.31667	-0.1084179
51.33333	-0.1176952
51.35	-0.116328
51.36667	-0.1096874
51.38333	-0.1028515
51.4	-0.0959179
51.41667	-0.0921093
51.43333	-0.09933586
51.45	-0.110957
51.46667	-0.1201366
51.48333	-0.1270702
51.5	-0.1351757
51.51667	-0.1400585
51.53333	-0.1364452
51.55	-0.1282421
51.56667	-0.1221874
51.58333	-0.1187695
51.6	-0.1159374
51.61667	-0.1159374
51.63333	-0.120039
51.65	-0.122871
51.66667	-0.1217968
51.68333	-0.1211132
51.7	-0.1264843
51.71667	-0.1344921
51.73333	-0.1403515
51.75	-0.1427929
51.76667	-0.1418163
51.78333	-0.138789
51.8	-0.1347851
51.81667	-0.132539
51.83333	-0.1299999
51.85	-0.1276562
51.86667	-0.1270702
51.88333	-0.1222851
51.9	-0.1087109
51.91667	-0.09484367
51.93333	-0.09289055
51.95	-0.1000195
51.96667	-0.1046093
51.98333	-0.1071484
52	-0.1151562
52.01667	-0.1277538
52.03333	-0.138789
52.05	-0.1401562
52.06667	-0.1314648
52.08333	-0.1189648
52.1	-0.1090038
52.11667	-0.1053905
52.13333	-0.1055859
52.15	-0.1014843
52.16667	-0.09044914
52.18333	-0.08478508
52.2	-0.0914257
52.21667	-0.1051952
52.23333	-0.114082
52.25	-0.1154491
52.26667	-0.1139843
52.28333	-0.1110546
52.3	-0.1088085
52.31667	-0.110957
52.33333	-0.1194531
52.35	-0.1293163
52.36667	-0.1342968
52.38333	-0.1344921
52.4	-0.1360546
52.41667	-0.1399609
52.43333	-0.1414257
52.45	-0.1329296
52.46667	-0.1138866
52.48333	-0.09103508
52.5	-0.07785149
52.51667	-0.07912102
52.53333	-0.08849601
52.55	-0.09513664
52.56667	-0.09376945
52.58333	-0.08800773
52.6	-0.0858593
52.61667	-0.09201165
52.63333	-0.100703
52.65	-0.1038281
52.66667	-0.1033398
52.68333	-0.1049023
52.7	-0.107246
52.71667	-0.1048046
52.73333	-0.09777336
52.75	-0.09279289
52.76667	-0.09230461
52.78333	-0.09455071
52.8	-0.0992382
52.81667	-0.104707
52.83333	-0.1063671
52.85	-0.1029491
52.86667	-0.101289
52.88333	-0.1028515
52.9	-0.1034374
52.91667	-0.1029491
52.93333	-0.1085155
52.95	-0.120039
52.96667	-0.1268749
52.98333	-0.122578
53	-0.1096874
53.01667	-0.09562492
53.03333	-0.08791008
53.05	-0.08673821
53.06667	-0.08722649
53.08333	-0.08566399
53.1	-0.08478508
53.11667	-0.08761711
53.13333	-0.09396477
53.15	-0.09982415
53.16667	-0.1003124
53.18333	-0.09718742
53.2	-0.09816398
53.21667	-0.1061718
53.23333	-0.1113476
53.25	-0.1056835
53.26667	-0.09533195
53.28333	-0.0921093
53.3	-0.09748039
53.31667	-0.1046093
53.33333	-0.1111523
53.35	-0.117207
53.36667	-0.1189648
53.38333	-0.1154491
53.4	-0.1121288
53.41667	-0.1136913
53.43333	-0.1183788
53.45	-0.1187695
53.46667	-0.1121288
53.48333	-0.1030468
53.5	-0.1000195
53.51667	-0.107832
53.53333	-0.1216991
53.55	-0.1313671
53.56667	-0.1309765
53.58333	-0.1255077
53.6	-0.1229687
53.61667	-0.1263866
53.63333	-0.1327343
53.65	-0.1388866
53.66667	-0.138789
53.68333	-0.1283398
53.7	-0.1133984
53.71667	-0.1046093
53.73333	-0.1074413
53.75	-0.1141796
53.76667	-0.1161327
53.78333	-0.116328
53.8	-0.1207226
53.81667	-0.1258007
53.83333	-0.126289
53.85	-0.1227734
53.86667	-0.1159374
53.88333	-0.1059765
53.9	-0.09953117
53.91667	-0.0999218
53.93333	-0.09933586
53.95	-0.09513664
53.96667	-0.09894524
53.98333	-0.1160351
54	-0.1362499
54.01667	-0.1440624
54.03333	-0.139082
54.05	-0.1281445
54.06667	-0.1204296
54.08333	-0.116328
54.1	-0.1145702
54.11667	-0.1110546
54.13333	-0.1057812
54.15	-0.1014843
54.16667	-0.09572258
54.18333	-0.08849601
54.2	-0.08673821
54.21667	-0.09572258
54.23333	-0.1084179
54.25	-0.1154491
54.26667	-0.1179882
54.28333	-0.1201366
54.3	-0.1223827
54.31667	-0.1222851
54.33333	-0.1174023
54.35	-0.1114452
54.36667	-0.1080273
54.38333	-0.107832
54.4	-0.1071484
54.41667	-0.1062695
54.43333	-0.1058788
54.45	-0.1054882
54.46667	-0.1036327
54.48333	-0.09943352
54.5	-0.09328117
54.51667	-0.08869133
54.53333	-0.08566399
54.55	-0.07931633
54.56667	-0.07091789
54.58333	-0.06964836
54.6	-0.08087883
54.61667	-0.0967968
54.63333	-0.1068554
54.65	-0.1102734
54.66667	-0.110664
54.68333	-0.107832
54.7	-0.100996
54.71667	-0.09337883
54.73333	-0.09357414
54.75	-0.1024609
54.76667	-0.1101757
54.78333	-0.110371
54.8	-0.1060741
54.81667	-0.1068554
54.83333	-0.1168163
54.85	-0.1283398
54.86667	-0.1316601
54.88333	-0.1248241
54.9	-0.1144726
54.91667	-0.1099804
54.93333	-0.1130077
54.95	-0.116621
54.96667	-0.1145702
54.98333	-0.110957
55	-0.1148632
