"SampleName"	"12. PC-12 Atp2b2 shRNA C"
"System Name"	"Alliance 2"
"Sample Set Name"	"DTtV_15052025 GSL new HPLC"
"Date Acquired"	"5/16/2025 1:10:29 AM BST"
"Sample Set Start Date"	"5/15/2025 2:04:31 PM BST"
0	0.0003356934
0.01666667	0.0004867554
0.03333333	-1.678467e-05
0.05	0.003401184
0.06666667	0.01472931
0.08333333	0.03064728
0.1	0.04431915
0.1166667	0.05213165
0.1333333	0.05769806
0.15	0.06238556
0.1666667	0.06258087
0.1833333	0.05896759
0.2	0.05974884
0.2166667	0.06687775
0.2333333	0.07595978
0.25	0.08299103
0.2666667	0.0888504
0.2833333	0.09470978
0.3	0.09783478
0.3166667	0.09500275
0.3333333	0.08357696
0.35	0.0692215
0.3666667	0.06121368
0.3833333	0.06170196
0.4	0.06707306
0.4166667	0.07498322
0.4333333	0.08445587
0.45	0.08982696
0.4666667	0.08416291
0.4833333	0.07439728
0.5	0.0654129
0.5166667	0.05955353
0.5333333	0.05594025
0.55	0.05652618
0.5666667	0.06131134
0.5833333	0.06863556
0.6	0.07635041
0.6166667	0.08377228
0.6333333	0.08758087
0.65	0.086409
0.6666667	0.08084259
0.6833333	0.07498322
0.7	0.06961212
0.7166667	0.06101837
0.7333333	0.04998321
0.75	0.04129181
0.7666667	0.04060822
0.7833333	0.04138947
0.8	0.03787384
0.8166667	0.03191681
0.8333333	0.02996368
0.85	0.03377228
0.8666667	0.03894806
0.8833333	0.0410965
0.9	0.04090118
0.9166667	0.04207306
0.9333333	0.04402618
0.95	0.04470978
0.9666667	0.04627228
0.9833333	0.05017853
1	0.04969025
1.016667	0.03972931
1.033333	0.03084259
1.05	0.03025665
1.066667	0.03220978
1.083333	0.02918243
1.1	0.02810821
1.116667	0.03806915
1.133333	0.05183868
1.15	0.05398712
1.166667	0.04256134
1.183333	0.03084259
1.2	0.02566681
1.216667	0.02439728
1.233333	0.02332306
1.25	0.02088165
1.266667	0.01638946
1.283333	0.009944153
1.3	0.003303528
1.316667	-0.0003097534
1.333333	-0.001091003
1.35	-0.0009933471
1.366667	-0.002946472
1.383333	-0.01056366
1.4	-0.01886444
1.416667	-0.01925507
1.433333	-0.01144257
1.45	-0.001481628
1.466667	0.003889465
1.483333	8.087158e-05
1.5	-0.009294128
1.516667	-0.013591
1.533333	-0.01017303
1.55	-0.004801941
1.566667	-0.002360535
1.583333	-0.002458191
1.6	-0.005387879
1.616667	-0.008317566
1.633333	-0.008122253
1.65	-0.003825378
1.666667	0.003889465
1.683333	0.01492462
1.7	0.030159
1.716667	0.05027618
1.733333	0.07556915
1.75	0.1036942
1.766667	0.1268387
1.783333	0.1444168
1.8	0.1609207
1.816667	0.1795731
1.833333	0.1887527
1.85	0.1830887
1.866667	0.1683426
1.883333	0.1537918
1.9	0.1377762
1.916667	0.1205887
1.933333	0.1064285
1.95	0.09646759
1.966667	0.08416291
1.983333	0.07117462
2	0.06219025
2.016667	0.0576004
2.033333	0.05506134
2.05	0.05330353
2.066667	0.05193634
2.083333	0.05037384
2.1	0.04549103
2.116667	0.036409
2.133333	0.02469025
2.15	0.01394806
2.166667	0.002619934
2.183333	-0.01066132
2.2	-0.02218475
2.216667	-0.02462616
2.233333	-0.01720428
2.25	-0.00821991
2.266667	-0.005680847
2.283333	-0.01036835
2.3	-0.01847382
2.316667	-0.02794647
2.333333	-0.03693085
2.35	-0.04200897
2.366667	-0.04308319
2.383333	-0.04454803
2.4	-0.05099335
2.416667	-0.0651535
2.433333	-0.0830246
2.45	-0.09689178
2.466667	-0.1058762
2.483333	-0.1106613
2.5	-0.1130051
2.516667	-0.1175949
2.533333	-0.1290207
2.55	-0.1405441
2.566667	-0.1442551
2.583333	-0.1382004
2.6	-0.1301926
2.616667	-0.1246262
2.633333	-0.1187668
2.65	-0.1047043
2.666667	-0.07814179
2.683333	-0.03761444
2.7	0.01590118
2.716667	0.07566681
2.733333	0.1401199
2.75	0.2211746
2.766667	0.3302566
2.783333	0.4646316
2.8	0.6200027
2.816667	0.8153152
2.833333	1.080257
2.85	1.42596
2.866667	1.821468
2.883333	2.20555
2.9	2.51805
2.916667	2.720979
2.933333	2.814436
2.95	2.828108
2.966667	2.795784
2.983333	2.73553
3	2.655843
3.016667	2.572151
3.033333	2.504866
3.05	2.468831
3.066667	2.469417
3.083333	2.501448
3.1	2.551741
3.116667	2.604964
3.133333	2.652034
3.15	2.693343
3.166667	2.735725
3.183333	2.783967
3.2	2.838557
3.216667	2.901448
3.233333	2.983675
3.25	3.109749
3.266667	3.342952
3.283333	3.838362
3.3	4.840413
3.316667	6.565217
3.333333	9.010042
3.35	11.86942
3.366667	14.6577
3.383333	16.96522
3.4	18.61483
3.416667	19.67928
3.433333	20.65887
3.45	23.47118
3.466667	33.49823
3.483333	60.73729
3.5	116.3977
3.516667	204.8715
3.533333	318.2114
3.55	439.9748
3.566667	554.7365
3.583333	653.0219
3.6	728.4415
3.616667	774.0136
3.633333	783.6296
3.65	756.5804
3.666667	699.6932
3.683333	624.9184
3.7	544.5147
3.716667	467.2581
3.733333	397.4092
3.75	335.8433
3.766667	281.7816
3.783333	234.3018
3.8	193.2002
3.816667	159.0625
3.833333	132.8071
3.85	114.9941
3.866667	104.9005
3.883333	99.98621
3.9	96.74226
3.916667	92.22488
3.933333	84.66629
3.95	73.49168
3.966667	59.77117
3.983333	46.10037
4	34.94334
4.016667	27.07421
4.033333	21.84862
4.05	18.34032
4.066667	15.84295
4.083333	13.86258
4.1	12.13436
4.116667	10.62323
4.133333	9.392855
4.15	8.457112
4.166667	7.762776
4.183333	7.242659
4.2	6.847542
4.216667	6.539144
4.233333	6.290706
4.25	6.083772
4.266667	5.911799
4.283333	5.781624
4.3	5.703011
4.316667	5.674006
4.333333	5.682112
4.35	5.715315
4.366667	5.767464
4.383333	5.828889
4.4	5.879182
4.416667	5.895784
4.433333	5.86512
4.45	5.78885
4.466667	5.67137
4.483333	5.513655
4.5	5.316487
4.516667	5.089241
4.533333	4.843245
4.55	4.588655
4.566667	4.331136
4.583333	4.075179
4.6	3.83055
4.616667	3.603792
4.633333	3.398128
4.65	3.215315
4.666667	3.065706
4.683333	2.966878
4.7	2.927718
4.716667	2.936995
4.733333	2.974007
4.75	3.009065
4.766667	3.015608
4.783333	2.992659
4.8	2.961702
4.816667	2.941487
4.833333	2.935139
4.85	2.938753
4.866667	2.942561
4.883333	2.930745
4.9	2.897542
4.916667	2.853303
4.933333	2.814827
4.95	2.797737
4.966667	2.808577
4.983333	2.837386
5	2.860432
5.016667	2.862581
5.033333	2.849202
5.05	2.830061
5.066667	2.808284
5.083333	2.783967
5.1	2.763753
5.116667	2.74471
5.133333	2.719612
5.15	2.683284
5.166667	2.636995
5.183333	2.575667
5.2	2.494807
5.216667	2.404964
5.233333	2.319808
5.25	2.242366
5.266667	2.165608
5.283333	2.087874
5.3	2.012971
5.316667	1.944807
5.333333	1.88094
5.35	1.817268
5.366667	1.753011
5.383333	1.697249
5.4	1.660628
5.416667	1.643636
5.433333	1.636311
5.45	1.629964
5.466667	1.624007
5.483333	1.617268
5.5	1.607014
5.516667	1.591878
5.533333	1.575862
5.55	1.566097
5.566667	1.56678
5.583333	1.577815
5.6	1.599104
5.616667	1.632893
5.633333	1.682014
5.65	1.741096
5.666667	1.791096
5.683333	1.817464
5.7	1.820979
5.716667	1.817659
5.733333	1.81844
5.75	1.824202
5.766667	1.834553
5.783333	1.857307
5.8	1.893245
5.816667	1.931526
5.833333	1.958089
5.85	1.969905
5.866667	1.970686
5.883333	1.965022
5.9	1.954085
5.916667	1.933089
5.933333	1.898616
5.95	1.854573
5.966667	1.805452
5.983333	1.754475
6	1.701253
6.016667	1.641682
6.033333	1.574593
6.05	1.507893
6.066667	1.449788
6.083333	1.399886
6.1	1.361311
6.116667	1.341292
6.133333	1.341975
6.15	1.351448
6.166667	1.355354
6.183333	1.350178
6.2	1.337288
6.216667	1.320784
6.233333	1.299202
6.25	1.273128
6.266667	1.248518
6.283333	1.23221
6.3	1.219417
6.316667	1.200179
6.333333	1.177229
6.35	1.155159
6.366667	1.135139
6.383333	1.115999
6.4	1.103011
6.416667	1.097347
6.433333	1.094319
6.45	1.085823
6.466667	1.069221
6.483333	1.048323
6.5	1.033089
6.516667	1.02928
6.533333	1.03221
6.55	1.034847
6.566667	1.0368
6.583333	1.035628
6.6	1.027815
6.616667	1.013557
6.633333	0.9972488
6.65	0.9838699
6.666667	0.9680496
6.683333	0.9442215
6.7	0.914241
6.716667	0.8856277
6.733333	0.8616043
6.75	0.8450028
6.766667	0.8351395
6.783333	0.8289871
6.8	0.817952
6.816667	0.801448
6.833333	0.7874832
6.85	0.780159
6.866667	0.7750809
6.883333	0.7726395
6.9	0.7820145
6.916667	0.8084793
6.933333	0.8393387
6.95	0.8568192
6.966667	0.857991
6.983333	0.8587723
7	0.8663895
7.016667	0.8711746
7.033333	0.863948
7.05	0.8494949
7.066667	0.8353348
7.083333	0.8242019
7.1	0.8163894
7.116667	0.8117996
7.133333	0.8096512
7.15	0.8100418
7.166667	0.8128738
7.183333	0.8193191
7.2	0.8279129
7.216667	0.8318192
7.233333	0.8278152
7.25	0.8218582
7.266667	0.8228348
7.283333	0.8269364
7.3	0.8255692
7.316667	0.8161942
7.333333	0.8038895
7.35	0.7992996
7.366667	0.8073074
7.383333	0.8216629
7.4	0.8319168
7.416667	0.8380691
7.433333	0.8482254
7.45	0.8632644
7.466667	0.8781082
7.483333	0.8838699
7.5	0.8702957
7.516667	0.8398269
7.533333	0.8034012
7.55	0.7698075
7.566667	0.7375809
7.583333	0.7044754
7.6	0.6759598
7.616667	0.6568192
7.633333	0.645491
7.65	0.639241
7.666667	0.6348465
7.683333	0.6254715
7.7	0.6097488
7.716667	0.5924637
7.733333	0.582698
7.75	0.5798661
7.766667	0.5774246
7.783333	0.5764481
7.8	0.5807449
7.816667	0.5879715
7.833333	0.5931473
7.85	0.5930496
7.866667	0.5891434
7.883333	0.5852371
7.9	0.5845535
7.916667	0.5851395
7.933333	0.5851395
7.95	0.5844558
7.966667	0.5844558
7.983333	0.5839676
8	0.5839676
8.016667	0.5870926
8.033333	0.5936356
8.05	0.6029129
8.066667	0.6164871
8.083333	0.6367996
8.1	0.6627762
8.116667	0.6946121
8.133333	0.7323074
8.15	0.7694168
8.166667	0.7985184
8.183333	0.8191239
8.2	0.8354324
8.216667	0.8503739
8.233333	0.8636551
8.25	0.8785965
8.266667	0.895784
8.283333	0.9086746
8.3	0.9123856
8.316667	0.9055496
8.333333	0.8923661
8.35	0.8758621
8.366667	0.8562332
8.383333	0.8288895
8.4	0.7959793
8.416667	0.7657059
8.433333	0.7421707
8.45	0.721077
8.466667	0.6933426
8.483333	0.6599442
8.5	0.6285965
8.516667	0.6027176
8.533333	0.5803543
8.55	0.5600418
8.566667	0.5424637
8.583333	0.5297683
8.6	0.5152176
8.616667	0.4934402
8.633333	0.4768387
8.65	0.4751785
8.666667	0.4822098
8.683333	0.4831863
8.7	0.4799637
8.716667	0.4841629
8.733333	0.4945145
8.75	0.5012528
8.766667	0.5027176
8.783333	0.5080887
8.8	0.5215653
8.816667	0.5381668
8.833333	0.5500809
8.85	0.5531082
8.866667	0.5543777
8.883333	0.5591629
8.9	0.5659989
8.916667	0.5724441
8.933333	0.5814285
8.95	0.5969559
8.966667	0.6131668
8.983333	0.623616
9	0.6263504
9.016667	0.6253738
9.033333	0.6328934
9.05	0.658284
9.066667	0.7008621
9.083333	0.7500809
9.1	0.8056473
9.116667	0.8757645
9.133333	0.9559402
9.15	1.028987
9.166667	1.081526
9.183333	1.114339
9.2	1.132503
9.216667	1.138362
9.233333	1.133675
9.25	1.117366
9.266667	1.087874
9.283333	1.044124
9.3	0.9899246
9.316667	0.9320145
9.333333	0.8767411
9.35	0.829573
9.366667	0.7878739
9.383333	0.7433426
9.4	0.6916825
9.416667	0.6372879
9.433333	0.589534
9.45	0.5567215
9.466667	0.5389481
9.483333	0.5259598
9.5	0.5061356
9.516667	0.483577
9.533333	0.4658035
9.55	0.452327
9.566667	0.4401199
9.583333	0.4318191
9.6	0.4276199
9.616667	0.4231277
9.633333	0.4139481
9.65	0.4041824
9.666667	0.4010574
9.683333	0.4076981
9.7	0.4196121
9.716667	0.4323074
9.733333	0.4430496
9.75	0.4530106
9.766667	0.4633621
9.783333	0.4790848
9.8	0.5034012
9.816667	0.5338699
9.833333	0.5654129
9.85	0.5971512
9.866667	0.6284989
9.883333	0.6573074
9.9	0.6789871
9.916667	0.6890457
9.933333	0.6903152
9.95	0.6869949
9.966667	0.6799637
9.983333	0.6636551
10	0.6316239
10.01667	0.5852371
10.03333	0.5306473
10.05	0.4750809
10.06667	0.4257645
10.08333	0.3880692
10.1	0.3624832
10.11667	0.345491
10.13333	0.3318191
10.15	0.3217606
10.16667	0.314241
10.18333	0.3081864
10.2	0.2992996
10.21667	0.2879715
10.23333	0.2817215
10.25	0.2796707
10.26667	0.2717606
10.28333	0.2533035
10.3	0.2399246
10.31667	0.2487137
10.33333	0.2716629
10.35	0.2840652
10.36667	0.277327
10.38333	0.2616043
10.4	0.2487137
10.41667	0.2435379
10.43333	0.2441238
10.45	0.2465653
10.46667	0.2469559
10.48333	0.2440262
10.5	0.2385574
10.51667	0.2347488
10.53333	0.2350418
10.55	0.2350418
10.56667	0.2285965
10.58333	0.2182449
10.6	0.2083817
10.61667	0.1969559
10.63333	0.1834793
10.65	0.1772293
10.66667	0.1866043
10.68333	0.205452
10.7	0.2243973
10.71667	0.2342606
10.73333	0.2349441
10.75	0.2325027
10.76667	0.2323074
10.78333	0.2360184
10.8	0.2407059
10.81667	0.2447098
10.83333	0.2462723
10.85	0.2431473
10.86667	0.2358231
10.88333	0.2295731
10.9	0.2275223
10.91667	0.2283035
10.93333	0.2269363
10.95	0.2230301
10.96667	0.2198074
10.98333	0.2202957
11	0.2222488
11.01667	0.2211746
11.03333	0.2150223
11.05	0.2113113
11.06667	0.2170731
11.08333	0.2254715
11.1	0.2299637
11.11667	0.2289871
11.13333	0.2240067
11.15	0.2212723
11.16667	0.2253738
11.18333	0.2330887
11.2	0.2378738
11.21667	0.2384598
11.23333	0.242366
11.25	0.2505692
11.26667	0.2562332
11.28333	0.2531082
11.3	0.2432449
11.31667	0.2295731
11.33333	0.2198074
11.35	0.220784
11.36667	0.2316238
11.38333	0.2430496
11.4	0.2525223
11.41667	0.2624832
11.43333	0.2688309
11.45	0.2724442
11.46667	0.2751785
11.48333	0.2765457
11.5	0.2716629
11.51667	0.2651199
11.53333	0.2695145
11.55	0.2849441
11.56667	0.2951004
11.58333	0.2904129
11.6	0.2803543
11.61667	0.2782059
11.63333	0.2852371
11.65	0.2987137
11.66667	0.314241
11.68333	0.329866
11.7	0.3474441
11.71667	0.3655106
11.73333	0.383577
11.75	0.4030105
11.76667	0.4287918
11.78333	0.4587723
11.8	0.489827
11.81667	0.5205887
11.83333	0.548909
11.85	0.5727371
11.86667	0.5933426
11.88333	0.6143387
11.9	0.6397293
11.91667	0.6655105
11.93333	0.6873856
11.95	0.7047684
11.96667	0.7243973
11.98333	0.7432449
12	0.757991
12.01667	0.7652176
12.03333	0.7650223
12.05	0.7532059
12.06667	0.7297684
12.08333	0.7024246
12.1	0.6790848
12.11667	0.6556473
12.13333	0.630452
12.15	0.6087723
12.16667	0.5974442
12.18333	0.5934402
12.2	0.582991
12.21667	0.5629715
12.23333	0.5418777
12.25	0.5308426
12.26667	0.5277176
12.28333	0.5237137
12.3	0.5160965
12.31667	0.5072098
12.33333	0.5009598
12.35	0.4990067
12.36667	0.4991043
12.38333	0.4958816
12.4	0.488948
12.41667	0.4858231
12.43333	0.4897293
12.45	0.4943191
12.46667	0.4940262
12.48333	0.492659
12.5	0.4967605
12.51667	0.5076981
12.53333	0.517659
12.55	0.5196121
12.56667	0.5139481
12.58333	0.5073074
12.6	0.5068191
12.61667	0.5086746
12.63333	0.508284
12.65	0.5047684
12.66667	0.5065262
12.68333	0.5132645
12.7	0.5206863
12.71667	0.5278152
12.73333	0.5369949
12.75	0.5443192
12.76667	0.5429519
12.78333	0.5339676
12.8	0.5252762
12.81667	0.5245926
12.83333	0.5296707
12.85	0.5340652
12.86667	0.5339676
12.88333	0.5330887
12.9	0.5330887
12.91667	0.533284
12.93333	0.5349442
12.95	0.5373856
12.96667	0.5400223
12.98333	0.5445145
13	0.549202
13.01667	0.5444168
13.03333	0.5329911
13.05	0.5258621
13.06667	0.5293778
13.08333	0.5383621
13.1	0.5442215
13.11667	0.5475418
13.13333	0.5495926
13.15	0.5575027
13.16667	0.5724441
13.18333	0.5865067
13.2	0.5940262
13.21667	0.5994949
13.23333	0.6106278
13.25	0.627034
13.26667	0.6442215
13.28333	0.6623856
13.3	0.6858231
13.31667	0.7106277
13.33333	0.7312332
13.35	0.742659
13.36667	0.7498856
13.38333	0.7613114
13.4	0.7751786
13.41667	0.7863113
13.43333	0.7922684
13.45	0.7945145
13.46667	0.7940262
13.48333	0.7907059
13.5	0.7854325
13.51667	0.7815262
13.53333	0.7823074
13.55	0.7872879
13.56667	0.7927567
13.58333	0.7984207
13.6	0.8024246
13.61667	0.804866
13.63333	0.8075027
13.65	0.8172684
13.66667	0.8356277
13.68333	0.8562332
13.7	0.874202
13.71667	0.8911942
13.73333	0.902034
13.75	0.9029129
13.76667	0.8979324
13.78333	0.8969558
13.8	0.9005691
13.81667	0.9001786
13.83333	0.8925613
13.85	0.8812332
13.86667	0.8712723
13.88333	0.8619949
13.9	0.8477371
13.91667	0.8294754
13.93333	0.8144363
13.95	0.8031082
13.96667	0.7944168
13.98333	0.7917801
14	0.7933426
14.01667	0.7948074
14.03333	0.7936355
14.05	0.7972488
14.06667	0.8109207
14.08333	0.8384598
14.1	0.8824051
14.11667	0.9378738
14.13333	0.998616
14.15	1.064632
14.16667	1.140999
14.18333	1.229182
14.2	1.321175
14.21667	1.409651
14.23333	1.493343
14.25	1.577718
14.26667	1.666682
14.28333	1.752327
14.3	1.821175
14.31667	1.867659
14.33333	1.899983
14.35	1.922542
14.36667	1.93094
14.38333	1.914925
14.4	1.877522
14.41667	1.828987
14.43333	1.774788
14.45	1.71385
14.46667	1.645686
14.48333	1.574886
14.5	1.503694
14.51667	1.435921
14.53333	1.378206
14.55	1.331722
14.56667	1.286116
14.58333	1.231624
14.6	1.168343
14.61667	1.107405
14.63333	1.059261
14.65	1.020589
14.66667	0.9839676
14.68333	0.9526199
14.7	0.9335769
14.71667	0.9178543
14.73333	0.8992996
14.75	0.883284
14.76667	0.8771316
14.78333	0.8758621
14.8	0.8695145
14.81667	0.8609207
14.83333	0.8543777
14.85	0.8529129
14.86667	0.8574051
14.88333	0.8649246
14.9	0.8677567
14.91667	0.8611161
14.93333	0.8493973
14.95	0.8425614
14.96667	0.8436356
14.98333	0.845784
15	0.8404129
15.01667	0.8241043
15.03333	0.8062332
15.05	0.8001785
15.06667	0.8059403
15.08333	0.8119949
15.1	0.8152176
15.11667	0.8197098
15.13333	0.8259598
15.15	0.8294754
15.16667	0.8289871
15.18333	0.8276199
15.2	0.8232254
15.21667	0.817073
15.23333	0.8118973
15.25	0.8077957
15.26667	0.8042801
15.28333	0.8049637
15.3	0.8119949
15.31667	0.820491
15.33333	0.8219559
15.35	0.8163894
15.36667	0.811702
15.38333	0.8147293
15.4	0.8218582
15.41667	0.8266433
15.43333	0.8255692
15.45	0.8208817
15.46667	0.8167801
15.48333	0.8153152
15.5	0.8150223
15.51667	0.8121902
15.53333	0.8085769
15.55	0.8123856
15.56667	0.8250809
15.58333	0.8377762
15.6	0.8434402
15.61667	0.8406082
15.63333	0.8334793
15.65	0.8298661
15.66667	0.8340653
15.68333	0.8427566
15.7	0.8463699
15.71667	0.8475418
15.73333	0.8531082
15.75	0.8627762
15.76667	0.8724442
15.78333	0.8806473
15.8	0.8887528
15.81667	0.8994949
15.83333	0.9096512
15.85	0.9091629
15.86667	0.8977371
15.88333	0.8867019
15.9	0.8850418
15.91667	0.892952
15.93333	0.9066238
15.95	0.9214676
15.96667	0.9320145
15.98333	0.9363114
16	0.9373856
16.01667	0.9386551
16.03333	0.9424637
16.05	0.9469559
16.06667	0.9519364
16.08333	0.9612137
16.1	0.9779129
16.11667	1.000569
16.13333	1.025862
16.15	1.049397
16.16667	1.073909
16.18333	1.1118
16.2	1.168245
16.21667	1.235237
16.23333	1.309163
16.25	1.406526
16.26667	1.544026
16.28333	1.717659
16.3	1.912093
16.31667	2.119514
16.33333	2.344417
16.35	2.597347
16.36667	2.878987
16.38333	3.176155
16.4	3.470784
16.41667	3.750569
16.43333	4.014241
16.45	4.260628
16.46667	4.488362
16.48333	4.695491
16.5	4.884065
16.51667	5.064339
16.53333	5.253694
16.55	5.474788
16.56667	5.752327
16.58333	6.114046
16.6	6.57928
16.61667	7.156136
16.63333	7.846956
16.65	8.662971
16.66667	9.617659
16.68333	10.70067
16.7	11.86209
16.71667	13.03709
16.73333	14.17625
16.75	15.24432
16.76667	16.19784
16.78333	16.98045
16.8	17.54022
16.81667	17.85204
16.83333	17.91454
16.85	17.74393
16.86667	17.3658
16.88333	16.80887
16.9	16.10662
16.91667	15.30204
16.93333	14.4452
16.95	13.5743
16.96667	12.71483
16.98333	11.88533
17	11.10594
17.01667	10.3868
17.03333	9.725764
17.05	9.116878
17.06667	8.550764
17.08333	8.019124
17.1	7.514827
17.11667	7.031819
17.13333	6.571663
17.15	6.1326
17.16667	5.706233
17.18333	5.283186
17.2	4.86844
17.21667	4.48094
17.23333	4.128401
17.25	3.804768
17.26667	3.502229
17.28333	3.223616
17.3	2.974983
17.31667	2.752717
17.33333	2.549202
17.35	2.366683
17.36667	2.210335
17.38333	2.078108
17.4	1.96014
17.41667	1.850569
17.43333	1.751253
17.45	1.66385
17.46667	1.588655
17.48333	1.522151
17.5	1.462483
17.51667	1.413265
17.53333	1.382112
17.55	1.361995
17.56667	1.336311
17.58333	1.301253
17.6	1.269807
17.61667	1.248714
17.63333	1.233968
17.65	1.222054
17.66667	1.215218
17.68333	1.212581
17.7	1.209065
17.71667	1.203401
17.73333	1.203792
17.75	1.220003
17.76667	1.248811
17.78333	1.280257
17.8	1.310042
17.81667	1.339241
17.83333	1.368636
17.85	1.398714
17.86667	1.430257
17.88333	1.465218
17.9	1.50594
17.91667	1.555452
17.93333	1.613264
17.95	1.669222
17.96667	1.715999
17.98333	1.752718
18	1.781819
18.01667	1.803303
18.03333	1.812679
18.05	1.808772
18.06667	1.792464
18.08333	1.765413
18.1	1.730647
18.11667	1.695198
18.13333	1.665901
18.15	1.641389
18.16667	1.616975
18.18333	1.594417
18.2	1.570003
18.21667	1.538753
18.23333	1.501643
18.25	1.467268
18.26667	1.438362
18.28333	1.414241
18.3	1.396468
18.31667	1.385823
18.33333	1.380745
18.35	1.381136
18.36667	1.386702
18.38333	1.391194
18.4	1.38885
18.41667	1.378597
18.43333	1.367561
18.45	1.359944
18.46667	1.359163
18.48333	1.363167
18.5	1.367464
18.51667	1.368733
18.53333	1.372249
18.55	1.379671
18.56667	1.386214
18.58333	1.390999
18.6	1.392952
18.61667	1.388264
18.63333	1.378987
18.65	1.374397
18.66667	1.371468
18.68333	1.360335
18.7	1.34471
18.71667	1.338167
18.73333	1.345882
18.75	1.355354
18.76667	1.355452
18.78333	1.345882
18.8	1.335725
18.81667	1.335921
18.83333	1.342464
18.85	1.343831
18.86667	1.340901
18.88333	1.337288
18.9	1.330354
18.91667	1.318245
18.93333	1.310921
18.95	1.315315
18.96667	1.320784
18.98333	1.320393
19	1.319905
19.01667	1.322932
19.03333	1.324983
19.05	1.326448
19.06667	1.332307
19.08333	1.340413
19.1	1.342268
19.11667	1.334456
19.13333	1.321956
19.15	1.309358
19.16667	1.30428
19.18333	1.311702
19.2	1.327425
19.21667	1.340022
19.23333	1.342366
19.25	1.340901
19.26667	1.340804
19.28333	1.335725
19.3	1.327132
19.31667	1.32469
19.33333	1.331136
19.35	1.336897
19.36667	1.336995
19.38333	1.3368
19.4	1.33553
19.41667	1.332991
19.43333	1.332698
19.45	1.342073
19.46667	1.357112
19.48333	1.370686
19.5	1.381038
19.51667	1.389436
19.53333	1.398714
19.55	1.409651
19.56667	1.423909
19.58333	1.441487
19.6	1.4618
19.61667	1.481624
19.63333	1.503694
19.65	1.532893
19.66667	1.566389
19.68333	1.59471
19.7	1.616096
19.71667	1.636214
19.73333	1.65262
19.75	1.664729
19.76667	1.672639
19.78333	1.672151
19.8	1.660237
19.81667	1.647444
19.83333	1.644612
19.85	1.6493
19.86667	1.653889
19.88333	1.656917
19.9	1.661897
19.91667	1.667561
19.93333	1.669807
19.95	1.668831
19.96667	1.671272
19.98333	1.683772
20	1.701936
20.01667	1.719319
20.03333	1.733186
20.05	1.748421
20.06667	1.763948
20.08333	1.773909
20.1	1.781136
20.11667	1.792073
20.13333	1.802815
20.15	1.803108
20.16667	1.789729
20.18333	1.770003
20.2	1.750667
20.21667	1.738557
20.23333	1.732503
20.25	1.730354
20.26667	1.731136
20.28333	1.734554
20.3	1.738948
20.31667	1.744319
20.33333	1.749886
20.35	1.752913
20.36667	1.753401
20.38333	1.759456
20.4	1.771077
20.41667	1.785237
20.43333	1.802425
20.45	1.824007
20.46667	1.849983
20.48333	1.871761
20.5	1.889534
20.51667	1.90721
20.53333	1.927034
20.55	1.936702
20.56667	1.934456
20.58333	1.929671
20.6	1.934065
20.61667	1.947835
20.63333	1.967757
20.65	1.99803
20.66667	2.045296
20.68333	2.115901
20.7	2.21512
20.71667	2.347249
20.73333	2.513167
20.75	2.71014
20.76667	2.939827
20.78333	3.207405
20.8	3.516389
20.81667	3.863167
20.83333	4.231331
20.85	4.598714
20.86667	4.947737
20.88333	5.267073
20.9	5.547542
20.91667	5.777425
20.93333	5.95096
20.95	6.065804
20.96667	6.120393
20.98333	6.112092
21	6.04471
21.01667	5.93387
21.03333	5.79471
21.05	5.636312
21.06667	5.467463
21.08333	5.304964
21.1	5.168343
21.11667	5.069417
21.13333	5.013557
21.15	5.000472
21.16667	5.019905
21.18333	5.057893
21.2	5.113948
21.21667	5.193538
21.23333	5.292854
21.25	5.398909
21.26667	5.494514
21.28333	5.561213
21.3	5.590413
21.31667	5.590022
21.33333	5.569124
21.35	5.525667
21.36667	5.453792
21.38333	5.359651
21.4	5.255257
21.41667	5.149592
21.43333	5.046468
21.45	4.947347
21.46667	4.854573
21.48333	4.770003
21.5	4.6951
21.51667	4.630452
21.53333	4.576253
21.55	4.527522
21.56667	4.474495
21.58333	4.411116
21.6	4.336995
21.61667	4.255159
21.63333	4.164144
21.65	4.06346
21.66667	3.952132
21.68333	3.829378
21.7	3.700179
21.71667	3.57469
21.73333	3.458968
21.75	3.352327
21.76667	3.252717
21.78333	3.164241
21.8	3.089534
21.81667	3.018342
21.83333	2.940999
21.85	2.865413
21.86667	2.806233
21.88333	2.758577
21.9	2.702718
21.91667	2.634358
21.93333	2.566292
21.95	2.505061
21.96667	2.448909
21.98333	2.392171
22	2.337093
22.01667	2.283089
22.03333	2.227815
22.05	2.174104
22.06667	2.12635
22.08333	2.085042
22.1	2.045393
22.11667	2.009456
22.13333	1.982014
22.15	1.962776
22.16667	1.947835
22.18333	1.933186
22.2	1.918831
22.21667	1.915608
22.23333	1.928303
22.25	1.945296
22.26667	1.955745
22.28333	1.961018
22.3	1.971175
22.31667	1.990022
22.33333	2.021565
22.35	2.057796
22.36667	2.084651
22.38333	2.096077
22.4	2.105257
22.41667	2.125179
22.43333	2.145686
22.45	2.148714
22.46667	2.139046
22.48333	2.1326
22.5	2.131526
22.51667	2.127717
22.53333	2.121956
22.55	2.115706
22.56667	2.102229
22.58333	2.076643
22.6	2.048128
22.61667	2.026936
22.63333	2.014339
22.65	2.00594
22.66667	2.000276
22.68333	1.994514
22.7	1.9868
22.71667	1.978596
22.73333	1.973518
22.75	1.974104
22.76667	1.981917
22.78333	1.993831
22.8	2.007503
22.81667	2.027718
22.83333	2.063362
22.85	2.115901
22.86667	2.180745
22.88333	2.255257
22.9	2.339632
22.91667	2.438948
22.93333	2.559846
22.95	2.708675
22.96667	2.894124
22.98333	3.131917
23	3.450374
23.01667	3.884163
23.03333	4.470589
23.05	5.249983
23.06667	6.268342
23.08333	7.573323
23.1	9.211311
23.11667	11.21805
23.13333	13.6078
23.15	16.37459
23.16667	19.4954
23.18333	22.916
23.2	26.53934
23.21667	30.2327
23.23333	33.85096
23.25	37.25272
23.26667	40.30545
23.28333	42.88836
23.3	44.89061
23.31667	46.22742
23.33333	46.85984
23.35	46.79744
23.36667	46.09071
23.38333	44.81316
23.4	43.05672
23.41667	40.91727
23.43333	38.49227
23.45	35.88446
23.46667	33.19872
23.48333	30.52528
23.5	27.92343
23.51667	25.42557
23.53333	23.05965
23.55	20.85555
23.56667	18.83778
23.58333	17.00594
23.6	15.34217
23.61667	13.83436
23.63333	12.4827
23.65	11.28162
23.66667	10.20653
23.68333	9.237971
23.7	8.370687
23.71667	7.602522
23.73333	6.921468
23.75	6.317366
23.76667	5.787581
23.78333	5.330256
23.8	4.939925
23.81667	4.610335
23.83333	4.334065
23.85	4.105452
23.86667	3.918929
23.88333	3.765901
23.9	3.639925
23.91667	3.541292
23.93333	3.468831
23.95	3.413753
23.96667	3.371858
23.98333	3.34764
24	3.335823
24.01667	3.323811
24.03333	3.299592
24.05	3.265413
24.06667	3.229085
24.08333	3.196272
24.1	3.167073
24.11667	3.137679
24.13333	3.106819
24.15	3.076155
24.16667	3.048323
24.18333	3.021468
24.2	2.994026
24.21667	2.97137
24.23333	2.958479
24.25	2.961116
24.26667	2.975374
24.28333	2.996565
24.3	3.025081
24.31667	3.059846
24.33333	3.095003
24.35	3.123225
24.36667	3.153596
24.38333	3.200471
24.4	3.25721
24.41667	3.302229
24.43333	3.32762
24.45	3.346663
24.46667	3.36346
24.48333	3.37137
24.5	3.3701
24.51667	3.362874
24.53333	3.346272
24.55	3.320686
24.56667	3.300179
24.58333	3.297542
24.6	3.316194
24.61667	3.363557
24.63333	3.46678
24.65	3.656429
24.66667	3.957503
24.68333	4.399007
24.7	5.0243
24.71667	5.886214
24.73333	7.031624
24.75	8.498225
24.76667	10.31717
24.78333	12.51698
24.8	15.10995
24.81667	18.08221
24.83333	21.39071
24.85	24.95975
24.86667	28.68338
24.88333	32.43817
24.9	36.09256
24.91667	39.50975
24.93333	42.55437
24.95	45.10398
24.96667	47.05623
24.98333	48.33787
25	48.92117
25.01667	48.8325
25.03333	48.12664
25.05	46.87293
25.06667	45.15037
25.08333	43.04861
25.1	40.6659
25.11667	38.10067
25.13333	35.44413
25.15	32.77411
25.16667	30.15047
25.18333	27.61122
25.2	25.18182
25.21667	22.89012
25.23333	20.76336
25.25	18.81493
25.26667	17.03651
25.28333	15.40858
25.3	13.92049
25.31667	12.56795
25.33333	11.34578
25.35	10.24022
25.36667	9.243441
25.38333	8.354182
25.4	7.568635
25.41667	6.872932
25.43333	6.255159
25.45	5.718636
25.46667	5.263557
25.48333	4.876253
25.5	4.54178
25.51667	4.259163
25.53333	4.026741
25.55	3.828889
25.56667	3.657893
25.58333	3.527327
25.6	3.446858
25.61667	3.40594
25.63333	3.391682
25.65	3.40428
25.66667	3.448616
25.68333	3.520003
25.7	3.611409
25.71667	3.718538
25.73333	3.838362
25.75	3.967268
25.76667	4.104182
25.78333	4.248811
25.8	4.395979
25.81667	4.536214
25.83333	4.662288
25.85	4.776057
25.86667	4.885823
25.88333	4.997249
25.9	5.105647
25.91667	5.199885
25.93333	5.276741
25.95	5.341878
25.96667	5.400667
25.98333	5.451936
26	5.490413
26.01667	5.517171
26.03333	5.531722
26.05	5.52801
26.06667	5.499495
26.08333	5.446663
26.1	5.378108
26.11667	5.295882
26.13333	5.197542
26.15	5.083968
26.16667	4.963655
26.18333	4.838362
26.2	4.694417
26.21667	4.524788
26.23333	4.344124
26.25	4.171761
26.26667	4.014143
26.28333	3.870784
26.3	3.737092
26.31667	3.603987
26.33333	3.46844
26.35	3.339827
26.36667	3.227229
26.38333	3.130647
26.4	3.05262
26.41667	2.996663
26.43333	2.962678
26.45	2.948128
26.46667	2.958284
26.48333	2.998421
26.5	3.075764
26.51667	3.202522
26.53333	3.394026
26.55	3.662288
26.56667	4.007308
26.58333	4.425569
26.6	4.917952
26.61667	5.489924
26.63333	6.140608
26.65	6.857307
26.66667	7.620882
26.68333	8.411214
26.7	9.200569
26.71667	9.94803
26.73333	10.61414
26.75	11.17713
26.76667	11.62371
26.78333	11.93739
26.8	12.10575
26.81667	12.13104
26.83333	12.02381
26.85	11.79344
26.86667	11.45301
26.88333	11.02303
26.9	10.52987
26.91667	9.998616
26.93333	9.445394
26.95	8.878108
26.96667	8.308088
26.98333	7.757405
27	7.241487
27.01667	6.761702
27.03333	6.314046
27.05	5.899886
27.06667	5.524983
27.08333	5.187386
27.1	4.878596
27.11667	4.597444
27.13333	4.349983
27.15	4.134163
27.16667	3.941292
27.18333	3.764729
27.2	3.608479
27.21667	3.481038
27.23333	3.385237
27.25	3.31639
27.26667	3.2701
27.28333	3.25096
27.3	3.271077
27.31667	3.332015
27.33333	3.43553
27.35	3.588948
27.36667	3.795784
27.38333	4.054964
27.4	4.366878
27.41667	4.736116
27.43333	5.167659
27.45	5.659651
27.46667	6.200374
27.48333	6.773128
27.5	7.360042
27.51667	7.944026
27.53333	8.504964
27.55	9.022054
27.56667	9.477717
27.58333	9.856722
27.6	10.13865
27.61667	10.30994
27.63333	10.36795
27.65	10.32264
27.66667	10.17967
27.68333	9.943342
27.7	9.628401
27.71667	9.262484
27.73333	8.869905
27.75	8.454768
27.76667	8.016194
27.78333	7.567854
27.8	7.134553
27.81667	6.730647
27.83333	6.351448
27.85	5.983479
27.86667	5.628304
27.88333	5.30301
27.9	5.020003
27.91667	4.774788
27.93333	4.553889
27.95	4.351644
27.96667	4.167854
27.98333	4.005257
28	3.863362
28.01667	3.738655
28.03333	3.631526
28.05	3.545198
28.06667	3.477913
28.08333	3.420784
28.1	3.363948
28.11667	3.303792
28.13333	3.243928
28.15	3.189436
28.16667	3.145491
28.18333	3.106331
28.2	3.064534
28.21667	3.02137
28.23333	2.983382
28.25	2.951155
28.26667	2.917659
28.28333	2.87928
28.3	2.842854
28.31667	2.819124
28.33333	2.81512
28.35	2.822542
28.36667	2.828401
28.38333	2.82762
28.4	2.825374
28.41667	2.827327
28.43333	2.837386
28.45	2.860042
28.46667	2.892854
28.48333	2.928694
28.5	2.966975
28.51667	3.012386
28.53333	3.061409
28.55	3.103889
28.56667	3.144417
28.58333	3.198811
28.6	3.269417
28.61667	3.344026
28.63333	3.414339
28.65	3.4826
28.66667	3.556526
28.68333	3.644026
28.7	3.742073
28.71667	3.838753
28.73333	3.922932
28.75	3.990315
28.76667	4.040803
28.78333	4.071272
28.8	4.083772
28.81667	4.0868
28.83333	4.084065
28.85	4.07137
28.86667	4.040315
28.88333	3.995296
28.9	3.94637
28.91667	3.889827
28.93333	3.823421
28.95	3.75555
28.96667	3.693733
28.98333	3.635628
29	3.581429
29.01667	3.540413
29.03333	3.518929
29.05	3.516975
29.06667	3.526643
29.08333	3.533382
29.1	3.533382
29.11667	3.54305
29.13333	3.578792
29.15	3.636409
29.16667	3.702815
29.18333	3.77928
29.2	3.879671
29.21667	4.007112
29.23333	4.157308
29.25	4.332503
29.26667	4.543147
29.28333	4.794319
29.3	5.077913
29.31667	5.38719
29.33333	5.722737
29.35	6.084749
29.36667	6.459065
29.38333	6.820686
29.4	7.154475
29.41667	7.445979
29.43333	7.675862
29.45	7.83055
29.46667	7.916194
29.48333	7.947053
29.5	7.919905
29.51667	7.821272
29.53333	7.652229
29.55	7.431428
29.56667	7.17801
29.58333	6.902327
29.6	6.610335
29.61667	6.30555
29.63333	5.995491
29.65	5.694026
29.66667	5.408675
29.68333	5.137971
29.7	4.879476
29.71667	4.641389
29.73333	4.432503
29.75	4.251936
29.76667	4.092561
29.78333	3.947053
29.8	3.808968
29.81667	3.678108
29.83333	3.556331
29.85	3.444905
29.86667	3.345003
29.88333	3.25887
29.9	3.192073
29.91667	3.142561
29.93333	3.104573
29.95	3.071272
29.96667	3.045003
29.98333	3.029866
30	3.0201
30.01667	3.009163
30.03333	3.00262
30.05	3.015413
30.06667	3.041096
30.08333	3.06805
30.1	3.09471
30.11667	3.124593
30.13333	3.157503
30.15	3.192268
30.16667	3.233284
30.18333	3.289534
30.2	3.361116
30.21667	3.439143
30.23333	3.51346
30.25	3.588753
30.26667	3.682112
30.28333	3.804475
30.3	3.95721
30.31667	4.143733
30.33333	4.378206
30.35	4.676839
30.36667	5.044807
30.38333	5.484065
30.4	6.005745
30.41667	6.62469
30.43333	7.342659
30.45	8.142073
30.46667	8.995979
30.48333	9.880159
30.5	10.76981
30.51667	11.63065
30.53333	12.42274
30.55	13.11453
30.56667	13.68602
30.58333	14.12186
30.6	14.40741
30.61667	14.52831
30.63333	14.47743
30.65	14.26122
30.66667	13.90721
30.68333	13.44051
30.7	12.87791
30.71667	12.24403
30.73333	11.58211
30.75	10.92703
30.76667	10.28377
30.78333	9.643147
30.8	9.005842
30.81667	8.387484
30.83333	7.803889
30.85	7.265803
30.86667	6.779085
30.88333	6.347249
30.9	5.970589
30.91667	5.638362
30.93333	5.334944
30.95	5.054769
30.96667	4.799592
30.98333	4.570882
31	4.368831
31.01667	4.194808
31.03333	4.044515
31.05	3.907503
31.06667	3.783382
31.08333	3.679671
31.1	3.593929
31.11667	3.514827
31.13333	3.438362
31.15	3.372346
31.16667	3.323323
31.18333	3.287971
31.2	3.255647
31.21667	3.220198
31.23333	3.185628
31.25	3.159554
31.26667	3.142268
31.28333	3.126057
31.3	3.114046
31.31667	3.110237
31.33333	3.111702
31.35	3.113655
31.36667	3.120784
31.38333	3.135628
31.4	3.150374
31.41667	3.161702
31.43333	3.175472
31.45	3.193733
31.46667	3.211507
31.48333	3.22469
31.5	3.231917
31.51667	3.237386
31.53333	3.242561
31.55	3.243928
31.56667	3.237581
31.58333	3.226155
31.6	3.213655
31.61667	3.199788
31.63333	3.1826
31.65	3.164046
31.66667	3.151448
31.68333	3.140999
31.7	3.128597
31.71667	3.113069
31.73333	3.096467
31.75	3.083186
31.76667	3.078108
31.78333	3.078011
31.8	3.077229
31.81667	3.072639
31.83333	3.064436
31.85	3.050374
31.86667	3.031722
31.88333	3.011507
31.9	2.993245
31.91667	2.980843
31.93333	2.974397
31.95	2.976155
31.96667	2.983284
31.98333	2.988167
32	2.986995
32.01667	2.985335
32.03333	2.987776
32.05	2.99305
32.06667	2.997737
32.08333	3.00721
32.1	3.027034
32.11667	3.059261
32.13333	3.093733
32.15	3.120589
32.16667	3.152132
32.18333	3.202522
32.2	3.262093
32.21667	3.309163
32.23333	3.338753
32.25	3.364241
32.26667	3.390706
32.28333	3.411409
32.3	3.430452
32.31667	3.45096
32.33333	3.464534
32.35	3.453889
32.36667	3.42469
32.38333	3.395491
32.4	3.375276
32.41667	3.35887
32.43333	3.340315
32.45	3.317952
32.46667	3.292561
32.48333	3.267854
32.5	3.246175
32.51667	3.227425
32.53333	3.207307
32.55	3.192757
32.56667	3.186897
32.58333	3.17889
32.6	3.15721
32.61667	3.131038
32.63333	3.117268
32.65	3.119124
32.66667	3.124104
32.68333	3.123518
32.7	3.112483
32.71667	3.089632
32.73333	3.063753
32.75	3.049397
32.76667	3.051448
32.78333	3.059554
32.8	3.061311
32.81667	3.053303
32.83333	3.039046
32.85	3.030159
32.86667	3.027034
32.88333	3.022053
32.9	3.013264
32.91667	3.008479
32.93333	3.018929
32.95	3.036995
32.96667	3.0451
32.98333	3.037288
33	3.028889
33.01667	3.030745
33.03333	3.03221
33.05	3.024397
33.06667	3.014632
33.08333	3.01512
33.1	3.026936
33.11667	3.043831
33.13333	3.060237
33.15	3.070491
33.16667	3.080842
33.18333	3.097347
33.2	3.117952
33.21667	3.141975
33.23333	3.170393
33.25	3.207405
33.26667	3.243636
33.28333	3.274495
33.3	3.306819
33.31667	3.35135
33.33333	3.404182
33.35	3.450862
33.36667	3.487874
33.38333	3.520491
33.4	3.548714
33.41667	3.566975
33.43333	3.574397
33.45	3.58055
33.46667	3.593343
33.48333	3.604671
33.5	3.604573
33.51667	3.58846
33.53333	3.559456
33.55	3.522249
33.56667	3.48719
33.58333	3.461214
33.6	3.442171
33.61667	3.421565
33.63333	3.395393
33.65	3.362386
33.66667	3.325862
33.68333	3.295198
33.7	3.276546
33.71667	3.267854
33.73333	3.258772
33.75	3.244319
33.76667	3.229964
33.78333	3.217464
33.8	3.205842
33.81667	3.194612
33.83333	3.187581
33.85	3.187483
33.86667	3.187581
33.88333	3.177425
33.9	3.158675
33.91667	3.145003
33.93333	3.141389
33.95	3.140999
33.96667	3.140804
33.98333	3.141487
34	3.140804
34.01667	3.1368
34.03333	3.134553
34.05	3.13719
34.06667	3.142464
34.08333	3.148225
34.1	3.154964
34.11667	3.160042
34.13333	3.156722
34.15	3.147346
34.16667	3.141975
34.18333	3.14637
34.2	3.155452
34.21667	3.16219
34.23333	3.167854
34.25	3.17469
34.26667	3.179378
34.28333	3.181526
34.3	3.184554
34.31667	3.189729
34.33333	3.19637
34.35	3.202132
34.36667	3.204964
34.38333	3.203304
34.4	3.199104
34.41667	3.194319
34.43333	3.189241
34.45	3.185628
34.46667	3.187679
34.48333	3.190608
34.5	3.18553
34.51667	3.174495
34.53333	3.171272
34.55	3.183577
34.56667	3.201643
34.58333	3.214925
34.6	3.215901
34.61667	3.206429
34.63333	3.196663
34.65	3.193635
34.66667	3.197932
34.68333	3.205061
34.7	3.212386
34.71667	3.212483
34.73333	3.203011
34.75	3.190315
34.76667	3.182698
34.78333	3.185432
34.8	3.198421
34.81667	3.220979
34.83333	3.242561
34.85	3.253401
34.86667	3.250667
34.88333	3.241585
34.9	3.232991
34.91667	3.22762
34.93333	3.227229
34.95	3.229475
34.96667	3.228889
34.98333	3.224788
35	3.225374
35.01667	3.234847
35.03333	3.2451
35.05	3.249202
35.06667	3.250374
35.08333	3.253694
35.1	3.26053
35.11667	3.265608
35.13333	3.269222
35.15	3.27137
35.16667	3.271565
35.18333	3.268636
35.2	3.262581
35.21667	3.259749
35.23333	3.264729
35.25	3.276253
35.26667	3.288265
35.28333	3.294905
35.3	3.293636
35.31667	3.284456
35.33333	3.275081
35.35	3.273225
35.36667	3.276839
35.38333	3.277913
35.4	3.272542
35.41667	3.264632
35.43333	3.258675
35.45	3.255159
35.46667	3.258284
35.48333	3.269124
35.5	3.284456
35.51667	3.300081
35.53333	3.31385
35.55	3.324202
35.56667	3.328108
35.58333	3.327229
35.6	3.326057
35.61667	3.326155
35.63333	3.324886
35.65	3.320686
35.66667	3.316097
35.68333	3.314827
35.7	3.318928
35.71667	3.325179
35.73333	3.333479
35.75	3.343147
35.76667	3.345882
35.78333	3.336604
35.8	3.322346
35.81667	3.317073
35.83333	3.322835
35.85	3.331722
35.86667	3.334651
35.88333	3.329182
35.9	3.321272
35.91667	3.317854
35.93333	3.32303
35.95	3.336116
35.96667	3.355061
35.98333	3.37469
36	3.388557
36.01667	3.392171
36.03333	3.389925
36.05	3.384456
36.06667	3.376936
36.08333	3.372932
36.1	3.375374
36.11667	3.38387
36.13333	3.390315
36.15	3.39012
36.16667	3.383675
36.18333	3.37928
36.2	3.386311
36.21667	3.400276
36.23333	3.413362
36.25	3.421663
36.26667	3.428206
36.28333	3.434065
36.3	3.434358
36.31667	3.422542
36.33333	3.405843
36.35	3.399886
36.36667	3.406233
36.38333	3.41219
36.4	3.408479
36.41667	3.402132
36.43333	3.403987
36.45	3.414046
36.46667	3.423616
36.48333	3.422835
36.5	3.417366
36.51667	3.416878
36.53333	3.422347
36.55	3.428108
36.56667	3.434554
36.58333	3.443733
36.6	3.451839
36.61667	3.453499
36.63333	3.452229
36.65	3.45594
36.66667	3.465901
36.68333	3.472542
36.7	3.470882
36.71667	3.459846
36.73333	3.448714
36.75	3.447249
36.76667	3.456038
36.78333	3.463264
36.8	3.461018
36.81667	3.4618
36.83333	3.474007
36.85	3.486311
36.86667	3.488265
36.88333	3.486116
36.9	3.49012
36.91667	3.498714
36.93333	3.502913
36.95	3.50135
36.96667	3.499104
36.98333	3.498909
37	3.498323
37.01667	3.49803
37.03333	3.502425
37.05	3.510432
37.06667	3.513167
37.08333	3.509358
37.1	3.504475
37.11667	3.508186
37.13333	3.514143
37.15	3.512581
37.16667	3.503499
37.18333	3.497835
37.2	3.500667
37.21667	3.503011
37.23333	3.503108
37.25	3.510139
37.26667	3.521663
37.28333	3.530647
37.3	3.532991
37.31667	3.53055
37.33333	3.526448
37.35	3.527327
37.36667	3.53553
37.38333	3.544417
37.4	3.548128
37.41667	3.547542
37.43333	3.547639
37.45	3.550374
37.46667	3.554964
37.48333	3.560725
37.5	3.564241
37.51667	3.565413
37.53333	3.567464
37.55	3.57137
37.56667	3.575374
37.58333	3.577913
37.6	3.580354
37.61667	3.58221
37.63333	3.582991
37.65	3.5826
37.66667	3.582698
37.68333	3.586214
37.7	3.596272
37.71667	3.603889
37.73333	3.600276
37.75	3.584944
37.76667	3.570589
37.78333	3.568343
37.8	3.574007
37.81667	3.576741
37.83333	3.574593
37.85	3.574397
37.86667	3.579671
37.88333	3.588753
37.9	3.600569
37.91667	3.613167
37.93333	3.617366
37.95	3.612679
37.96667	3.609163
37.98333	3.609554
38	3.60428
38.01667	3.593636
38.03333	3.591878
38.05	3.604671
38.06667	3.620784
38.08333	3.627425
38.1	3.625179
38.11667	3.620491
38.13333	3.612581
38.15	3.601839
38.16667	3.5951
38.18333	3.598518
38.2	3.606136
38.21667	3.61053
38.23333	3.613948
38.25	3.619514
38.26667	3.623714
38.28333	3.621663
38.3	3.614925
38.31667	3.611702
38.33333	3.623616
38.35	3.647737
38.36667	3.664436
38.38333	3.66385
38.4	3.654866
38.41667	3.645491
38.43333	3.6368
38.45	3.627717
38.46667	3.622346
38.48333	3.623714
38.5	3.631819
38.51667	3.640706
38.53333	3.643929
38.55	3.647249
38.56667	3.655257
38.58333	3.660237
38.6	3.657307
38.61667	3.656722
38.63333	3.669026
38.65	3.686311
38.66667	3.694124
38.68333	3.692366
38.7	3.687386
38.71667	3.682405
38.73333	3.673421
38.75	3.661604
38.76667	3.656819
38.78333	3.663753
38.8	3.675276
38.81667	3.678206
38.83333	3.672542
38.85	3.667171
38.86667	3.666878
38.88333	3.668636
38.9	3.675667
38.91667	3.689925
38.93333	3.707698
38.95	3.718636
38.96667	3.716975
38.98333	3.709553
39	3.70721
39.01667	3.713069
39.03333	3.722542
39.05	3.727132
39.06667	3.726643
39.08333	3.730159
39.1	3.744514
39.11667	3.765706
39.13333	3.779573
39.15	3.781526
39.16667	3.78221
39.18333	3.797249
39.2	3.82469
39.21667	3.846272
39.23333	3.855843
39.25	3.865803
39.26667	3.888655
39.28333	3.916682
39.3	3.939827
39.31667	3.95721
39.33333	3.972444
39.35	3.984163
39.36667	3.997249
39.38333	4.020491
39.4	4.054183
39.41667	4.094514
39.43333	4.138069
39.45	4.180354
39.46667	4.214241
39.48333	4.236214
39.5	4.252815
39.51667	4.27303
39.53333	4.300765
39.55	4.338362
39.56667	4.380647
39.58333	4.41678
39.6	4.44344
39.61667	4.468147
39.63333	4.495393
39.65	4.525374
39.66667	4.559065
39.68333	4.601839
39.7	4.654768
39.71667	4.707405
39.73333	4.747542
39.75	4.775276
39.76667	4.806136
39.78333	4.852717
39.8	4.906331
39.81667	4.949202
39.83333	4.980062
39.85	5.007894
39.86667	5.042073
39.88333	5.081917
39.9	5.122835
39.91667	5.166389
39.93333	5.218636
39.95	5.278694
39.96667	5.336409
39.98333	5.386409
40	5.432796
40.01667	5.478499
40.03333	5.522835
40.05	5.565022
40.06667	5.605159
40.08333	5.64305
40.1	5.682698
40.11667	5.728108
40.13333	5.780843
40.15	5.835725
40.16667	5.889143
40.18333	5.940804
40.2	5.991194
40.21667	6.041682
40.23333	6.096077
40.25	6.149788
40.26667	6.197151
40.28333	6.240999
40.3	6.290901
40.31667	6.345881
40.33333	6.396663
40.35	6.44178
40.36667	6.486018
40.38333	6.529671
40.4	6.570589
40.41667	6.612386
40.43333	6.661409
40.45	6.714143
40.46667	6.763557
40.48333	6.805257
40.5	6.838948
40.51667	6.866683
40.53333	6.893342
40.55	6.928108
40.56667	6.975667
40.58333	7.032014
40.6	7.089925
40.61667	7.150472
40.63333	7.213753
40.65	7.275178
40.66667	7.331624
40.68333	7.384944
40.7	7.436311
40.71667	7.476546
40.73333	7.493831
40.75	7.488167
40.76667	7.473714
40.78333	7.457503
40.8	7.436897
40.81667	7.407112
40.83333	7.376643
40.85	7.352034
40.86667	7.331526
40.88333	7.320589
40.9	7.324885
40.91667	7.338167
40.93333	7.346175
40.95	7.345881
40.96667	7.346858
40.98333	7.356624
41	7.373421
41.01667	7.386312
41.03333	7.387679
41.05	7.3868
41.06667	7.395491
41.08333	7.413362
41.1	7.432112
41.11667	7.44637
41.13333	7.459651
41.15	7.472737
41.16667	7.483284
41.18333	7.490999
41.2	7.498713
41.21667	7.513362
41.23333	7.534944
41.25	7.560432
41.26667	7.582991
41.28333	7.601448
41.3	7.616975
41.31667	7.637874
41.33333	7.666878
41.35	7.694221
41.36667	7.705842
41.38333	7.704866
41.4	7.709065
41.41667	7.727815
41.43333	7.748128
41.45	7.75887
41.46667	7.763655
41.48333	7.776448
41.5	7.79969
41.51667	7.822053
41.53333	7.837092
41.55	7.845198
41.56667	7.849104
41.58333	7.855159
41.6	7.87264
41.61667	7.905452
41.63333	7.942561
41.65	7.974495
41.66667	8.000081
41.68333	8.021663
41.7	8.035237
41.71667	8.043147
41.73333	8.053889
41.75	8.069417
41.76667	8.084261
41.78333	8.089241
41.8	8.084749
41.81667	8.088557
41.83333	8.108675
41.85	8.135237
41.86667	8.153987
41.88333	8.161898
41.9	8.165608
41.91667	8.175081
41.93333	8.193148
41.95	8.217659
41.96667	8.236018
41.98333	8.242073
42	8.24305
42.01667	8.248518
42.03333	8.260139
42.05	8.269612
42.06667	8.275179
42.08333	8.278206
42.1	8.281624
42.11667	8.290022
42.13333	8.304378
42.15	8.314339
42.16667	8.319221
42.18333	8.323421
42.2	8.329768
42.21667	8.33846
42.23333	8.349202
42.25	8.359944
42.26667	8.365804
42.28333	8.36678
42.3	8.372737
42.31667	8.388069
42.33333	8.399397
42.35	8.396565
42.36667	8.384847
42.38333	8.377815
42.4	8.386312
42.41667	8.405159
42.43333	8.425471
42.45	8.436213
42.46667	8.432405
42.48333	8.421468
42.5	8.414339
42.51667	8.420588
42.53333	8.437678
42.55	8.450472
42.56667	8.448909
42.58333	8.438655
42.6	8.429476
42.61667	8.424006
42.63333	8.418734
42.65	8.418147
42.66667	8.426546
42.68333	8.44012
42.7	8.457308
42.71667	8.476155
42.73333	8.484553
42.75	8.476936
42.76667	8.458089
42.78333	8.439241
42.8	8.423518
42.81667	8.413363
42.83333	8.413167
42.85	8.417269
42.86667	8.414534
42.88333	8.398811
42.9	8.370296
42.91667	8.333967
42.93333	8.299299
42.95	8.279963
42.96667	8.285921
42.98333	8.315022
43	8.350764
43.01667	8.380061
43.03333	8.400081
43.05	8.416585
43.06667	8.435237
43.08333	8.453499
43.1	8.467463
43.11667	8.469709
43.13333	8.457796
43.15	8.425276
43.16667	8.358577
43.18333	8.249788
43.2	8.096663
43.21667	7.90594
43.23333	7.694612
43.25	7.475081
43.26667	7.244514
43.28333	6.998713
43.3	6.746077
43.31667	6.501058
43.33333	6.273128
43.35	6.063948
43.36667	5.868147
43.38333	5.683089
43.4	5.504476
43.41667	5.328597
43.43333	5.159261
43.45	5.003694
43.46667	4.860823
43.48333	4.719514
43.5	4.578792
43.51667	4.446272
43.53333	4.323616
43.55	4.207405
43.56667	4.08885
43.58333	3.966194
43.6	3.847835
43.61667	3.742561
43.63333	3.647249
43.65	3.548421
43.66667	3.441097
43.68333	3.328304
43.7	3.219807
43.71667	3.12137
43.73333	3.031331
43.75	2.941292
43.76667	2.848128
43.78333	2.760823
43.8	2.683382
43.81667	2.608968
43.83333	2.528792
43.85	2.442561
43.86667	2.357112
43.88333	2.275862
43.9	2.200081
43.91667	2.130647
43.93333	2.067171
43.95	2.005647
43.96667	1.944417
43.98333	1.884456
44	1.826936
44.01667	1.769319
44.03333	1.7118
44.05	1.6576
44.06667	1.607893
44.08333	1.561311
44.1	1.510628
44.11667	1.454475
44.13333	1.398518
44.15	1.35096
44.16667	1.315413
44.18333	1.288069
44.2	1.261018
44.21667	1.226448
44.23333	1.184358
44.25	1.140706
44.26667	1.104475
44.28333	1.074886
44.3	1.04471
44.31667	1.011604
44.33333	0.9846512
44.35	0.9682449
44.36667	0.954573
44.38333	0.9373856
44.4	0.9163895
44.41667	0.8966629
44.43333	0.8788894
44.45	0.8651199
44.46667	0.8546707
44.48333	0.8420731
44.5	0.8211746
44.51667	0.7988113
44.53333	0.7870926
44.55	0.7873856
44.56667	0.7817215
44.58333	0.7587723
44.6	0.7257645
44.61667	0.6965653
44.63333	0.6778153
44.65	0.6626785
44.66667	0.6453934
44.68333	0.6201981
44.7	0.5913895
44.71667	0.567952
44.73333	0.5553543
44.75	0.5482254
44.76667	0.5375808
44.78333	0.520784
44.8	0.496077
44.81667	0.4667801
44.83333	0.4376785
44.85	0.4092606
44.86667	0.3822098
44.88333	0.358577
44.9	0.3413895
44.91667	0.3276199
44.93333	0.3135574
44.95	0.2968582
44.96667	0.2805496
44.98333	0.267659
45	0.2580887
45.01667	0.2531082
45.03333	0.2514481
45.05	0.2452957
45.06667	0.2291824
45.08333	0.2078934
45.1	0.1967606
45.11667	0.1985184
45.13333	0.2011551
45.15	0.1951981
45.16667	0.1831863
45.18333	0.167952
45.2	0.1525223
45.21667	0.1391434
45.23333	0.1324051
45.25	0.1299637
45.26667	0.1261551
45.28333	0.1165848
45.3	0.1073074
45.31667	0.105452
45.33333	0.1070145
45.35	0.105159
45.36667	0.09929962
45.38333	0.09627227
45.4	0.09832306
45.41667	0.1003738
45.43333	0.1000809
45.45	0.09910431
45.46667	0.09851837
45.48333	0.09685822
45.5	0.0904129
45.51667	0.07957306
45.53333	0.06824493
45.55	0.05838165
45.56667	0.05056915
45.58333	0.04344025
45.6	0.04002228
45.61667	0.03972931
45.63333	0.04158478
45.65	0.0435379
45.66667	0.04549103
45.68333	0.04617462
45.7	0.04031525
45.71667	0.02918243
45.73333	0.01892853
45.75	0.01375275
45.76667	0.01033478
45.78333	0.003987121
45.8	-0.003337097
45.81667	-0.01066132
45.83333	-0.01407928
45.85	-0.007536316
45.86667	0.006428528
45.88333	0.01590118
45.9	0.01892853
45.91667	0.02029571
45.93333	0.01883087
45.95	0.01199493
45.96667	0.005158997
45.98333	0.003596497
46	0.003205872
46.01667	8.087158e-05
46.03333	-0.002848816
46.05	-0.001579285
46.06667	0.0003738403
46.08333	-0.001481628
46.1	-0.007829284
46.11667	-0.01749725
46.13333	-0.02716522
46.15	-0.03488006
46.16667	-0.03976288
46.18333	-0.04181366
46.2	-0.03995819
46.21667	-0.0345871
46.23333	-0.03263397
46.25	-0.03634491
46.26667	-0.04064178
46.28333	-0.03986054
46.3	-0.0392746
46.31667	-0.04415741
46.33333	-0.05685272
46.35	-0.06974335
46.36667	-0.07306366
46.38333	-0.06603241
46.4	-0.05655975
46.41667	-0.04845428
46.43333	-0.03820038
46.45	-0.02745819
46.46667	-0.0236496
46.48333	-0.0236496
46.5	-0.0214035
46.51667	-0.01857147
46.53333	-0.02179413
46.55	-0.0339035
46.56667	-0.05079804
46.58333	-0.06544647
46.6	-0.07228241
46.61667	-0.06691132
46.63333	-0.05353241
46.65	-0.04249725
46.66667	-0.04249725
46.68333	-0.05196991
46.7	-0.0620285
46.71667	-0.06700897
46.73333	-0.06720428
46.75	-0.0627121
46.76667	-0.05402069
46.78333	-0.04601288
46.8	-0.04288788
46.81667	-0.04376679
46.83333	-0.04542694
46.85	-0.04523163
46.86667	-0.0423996
46.88333	-0.03878631
46.9	-0.03995819
46.91667	-0.04747772
46.93333	-0.05382538
46.95	-0.05245819
46.96667	-0.04493866
46.98333	-0.03820038
47	-0.03712616
47.01667	-0.04200897
47.03333	-0.04923553
47.05	-0.05392303
47.06667	-0.05597382
47.08333	-0.05773163
47.1	-0.0589035
47.11667	-0.0548996
47.13333	-0.04767304
47.15	-0.04366913
47.16667	-0.04259491
47.18333	-0.0401535
47.2	-0.03448944
47.21667	-0.02980194
47.23333	-0.02941132
47.25	-0.03214569
47.26667	-0.03673553
47.28333	-0.04113007
47.3	-0.04620819
47.31667	-0.05196991
47.33333	-0.05636444
47.35	-0.05968475
47.36667	-0.06407928
47.38333	-0.06876679
47.4	-0.07208709
47.41667	-0.07413788
47.43333	-0.07745819
47.45	-0.08321991
47.46667	-0.08790741
47.48333	-0.08624725
47.5	-0.07550506
47.51667	-0.06456757
47.53333	-0.06417694
47.55	-0.07394256
47.56667	-0.08116913
47.58333	-0.07599334
47.6	-0.06642304
47.61667	-0.06398163
47.63333	-0.06866913
47.65	-0.07247772
47.66667	-0.06925507
47.68333	-0.06154022
47.7	-0.05773163
47.71667	-0.06163788
47.73333	-0.06808319
47.75	-0.06779023
47.76667	-0.05773163
47.78333	-0.0455246
47.8	-0.04161835
47.81667	-0.04698944
47.83333	-0.05392303
47.85	-0.05929413
47.86667	-0.06193085
47.88333	-0.05968475
47.9	-0.05392303
47.91667	-0.0517746
47.93333	-0.05548554
47.95	-0.06124725
47.96667	-0.063591
47.98333	-0.063591
48	-0.06476288
48.01667	-0.06847382
48.03333	-0.06935272
48.05	-0.06554413
48.06667	-0.06525116
48.08333	-0.07189178
48.1	-0.07667694
48.11667	-0.06945038
48.13333	-0.05743866
48.15	-0.05245819
48.16667	-0.05753632
48.18333	-0.06720428
48.2	-0.07374725
48.21667	-0.07159881
48.23333	-0.06290741
48.25	-0.05597382
48.26667	-0.0564621
48.28333	-0.05968475
48.3	-0.05900116
48.31667	-0.0533371
48.33333	-0.04689179
48.35	-0.04415741
48.36667	-0.04757538
48.38333	-0.05382538
48.4	-0.05499725
48.41667	-0.04669647
48.43333	-0.03448944
48.45	-0.0307785
48.46667	-0.04200897
48.48333	-0.05753632
48.5	-0.063591
48.51667	-0.05587616
48.53333	-0.04532928
48.55	-0.04308319
48.56667	-0.04825897
48.58333	-0.05245819
48.6	-0.05499725
48.61667	-0.05841522
48.63333	-0.06154022
48.65	-0.05831756
48.66667	-0.04943085
48.68333	-0.04161835
48.7	-0.04152069
48.71667	-0.04767304
48.73333	-0.0548996
48.75	-0.05821991
48.76667	-0.05587616
48.78333	-0.0495285
48.8	-0.04318085
48.81667	-0.04161835
48.83333	-0.04474335
48.85	-0.04738007
48.86667	-0.04806366
48.88333	-0.0502121
48.9	-0.05353241
48.91667	-0.05402069
48.93333	-0.05050506
48.95	-0.04718475
48.96667	-0.04503632
48.98333	-0.04044647
49	-0.03224335
49.01667	-0.02931366
49.03333	-0.03663788
49.05	-0.0495285
49.06667	-0.05841522
49.08333	-0.06154022
49.1	-0.06222381
49.11667	-0.06349335
49.13333	-0.06251679
49.15	-0.0580246
49.16667	-0.05626678
49.18333	-0.06222381
49.2	-0.07042694
49.21667	-0.07120819
49.23333	-0.06573944
49.25	-0.06241913
49.26667	-0.06495819
49.28333	-0.06749725
49.3	-0.06710663
49.31667	-0.06495819
49.33333	-0.06388398
49.35	-0.06300507
49.36667	-0.05831756
49.38333	-0.05157929
49.4	-0.0455246
49.41667	-0.04113007
49.43333	-0.03722382
49.45	-0.0361496
49.46667	-0.04113007
49.48333	-0.0470871
49.5	-0.04962616
49.51667	-0.0486496
49.53333	-0.04835663
49.55	-0.04923553
49.56667	-0.04728241
49.58333	-0.04054413
49.6	-0.03419647
49.61667	-0.03478241
49.63333	-0.0392746
49.65	-0.04318085
49.66667	-0.04738007
49.68333	-0.05128632
49.7	-0.04972382
49.71667	-0.04191132
49.73333	-0.03253632
49.75	-0.03331757
49.76667	-0.04738007
49.78333	-0.06573944
49.8	-0.0752121
49.81667	-0.0705246
49.83333	-0.05831756
49.85	-0.04845428
49.86667	-0.04786835
49.88333	-0.05714569
49.9	-0.0673996
49.91667	-0.06808319
49.93333	-0.05529022
49.95	-0.03439178
49.96667	-0.01886444
49.98333	-0.01710663
50	-0.02638397
50.01667	-0.03683319
50.03333	-0.04318085
50.05	-0.04728241
50.06667	-0.05030975
50.08333	-0.04943085
50.1	-0.04630585
50.11667	-0.04454803
50.13333	-0.04259491
50.15	-0.03732147
50.16667	-0.03097382
50.18333	-0.02882538
50.2	-0.03136444
50.21667	-0.03634491
50.23333	-0.04132538
50.25	-0.04474335
50.26667	-0.04425507
50.28333	-0.0408371
50.3	-0.03732147
50.31667	-0.03527069
50.33333	-0.03741913
50.35	-0.04279022
50.36667	-0.05070038
50.38333	-0.05782928
50.4	-0.06056366
50.41667	-0.05929413
50.43333	-0.0564621
50.45	-0.05275116
50.46667	-0.04757538
50.48333	-0.04259491
50.5	-0.04103241
50.51667	-0.04220428
50.53333	-0.04542694
50.55	-0.04689179
50.56667	-0.04357147
50.58333	-0.03644257
50.6	-0.03214569
50.61667	-0.0314621
50.63333	-0.02960663
50.65	-0.02472382
50.66667	-0.022966
50.68333	-0.02814179
50.7	-0.03839569
50.71667	-0.04728241
50.73333	-0.04962616
50.75	-0.04630585
50.76667	-0.04337616
50.78333	-0.0464035
50.8	-0.05304413
50.81667	-0.0595871
50.83333	-0.06544647
50.85	-0.06886444
50.86667	-0.06622772
50.88333	-0.060466
50.9	-0.05460663
50.91667	-0.04845428
50.93333	-0.04269256
50.95	-0.04103241
50.96667	-0.04181366
50.98333	-0.04122772
51	-0.04034882
51.01667	-0.04474335
51.03333	-0.05196991
51.05	-0.05226288
51.06667	-0.04210663
51.08333	-0.02804413
51.1	-0.02111053
51.11667	-0.02218475
51.13333	-0.02570038
51.15	-0.02726288
51.16667	-0.026091
51.18333	-0.02267304
51.2	-0.01945038
51.21667	-0.0220871
51.23333	-0.02892303
51.25	-0.03351288
51.26667	-0.03741913
51.28333	-0.04474335
51.3	-0.05157929
51.31667	-0.05187225
51.33333	-0.04835663
51.35	-0.0455246
51.36667	-0.04357147
51.38333	-0.04249725
51.4	-0.04591522
51.41667	-0.05538788
51.43333	-0.06788788
51.45	-0.07462616
51.46667	-0.07042694
51.48333	-0.05929413
51.5	-0.05128632
51.51667	-0.04816132
51.53333	-0.04777069
51.55	-0.04786835
51.56667	-0.047966
51.58333	-0.05138397
51.6	-0.05792694
51.61667	-0.06446991
51.63333	-0.06613006
51.65	-0.06193085
51.66667	-0.05782928
51.68333	-0.05695038
51.7	-0.05568085
51.71667	-0.04991913
51.73333	-0.04161835
51.75	-0.03448944
51.76667	-0.03038788
51.78333	-0.0298996
51.8	-0.03488006
51.81667	-0.04308319
51.83333	-0.04913788
51.85	-0.05226288
51.86667	-0.05450897
51.88333	-0.05939179
51.9	-0.06857147
51.91667	-0.0767746
51.93333	-0.07755585
51.95	-0.07277069
51.96667	-0.06857147
51.98333	-0.06525116
52	-0.06339569
52.01667	-0.06505585
52.03333	-0.06720428
52.05	-0.06407928
52.06667	-0.05753632
52.08333	-0.05196991
52.1	-0.04835663
52.11667	-0.04474335
52.13333	-0.04073944
52.15	-0.03663788
52.16667	-0.0377121
52.18333	-0.04669647
52.2	-0.05665741
52.21667	-0.05763397
52.23333	-0.04835663
52.25	-0.03780975
52.26667	-0.03527069
52.28333	-0.03898163
52.3	-0.04005585
52.31667	-0.03995819
52.33333	-0.04493866
52.35	-0.05460663
52.36667	-0.05968475
52.38333	-0.05431366
52.4	-0.04620819
52.41667	-0.04454803
52.43333	-0.04689179
52.45	-0.04698944
52.46667	-0.04445038
52.48333	-0.04181366
52.5	-0.04220428
52.51667	-0.04874725
52.53333	-0.06251679
52.55	-0.07433319
52.56667	-0.07560273
52.58333	-0.06398163
52.6	-0.04679413
52.61667	-0.03341522
52.63333	-0.02960663
52.65	-0.03038788
52.66667	-0.0330246
52.68333	-0.04113007
52.7	-0.05138397
52.71667	-0.05821991
52.73333	-0.06017303
52.75	-0.06193085
52.76667	-0.063591
52.78333	-0.06007538
52.8	-0.05040741
52.81667	-0.04034882
52.83333	-0.03585663
52.85	-0.04034882
52.86667	-0.04650116
52.88333	-0.04806366
52.9	-0.04630585
52.91667	-0.04728241
52.93333	-0.05148163
52.95	-0.05284882
52.96667	-0.05030975
52.98333	-0.04689179
53	-0.04152069
53.01667	-0.03204804
53.03333	-0.0252121
53.05	-0.02745819
53.06667	-0.03820038
53.08333	-0.0470871
53.1	-0.04562225
53.11667	-0.03429413
53.13333	-0.0236496
53.15	-0.02111053
53.16667	-0.02775116
53.18333	-0.0392746
53.2	-0.04601288
53.21667	-0.04279022
53.23333	-0.03439178
53.25	-0.03195038
53.26667	-0.0370285
53.28333	-0.04132538
53.3	-0.04161835
53.31667	-0.04298554
53.33333	-0.04581757
53.35	-0.04738007
53.36667	-0.047966
53.38333	-0.04767304
53.4	-0.0455246
53.41667	-0.03986054
53.43333	-0.03195038
53.45	-0.02706757
53.46667	-0.0252121
53.48333	-0.02980194
53.5	-0.04142303
53.51667	-0.05255585
53.53333	-0.05743866
53.55	-0.05548554
53.56667	-0.04845428
53.58333	-0.03839569
53.6	-0.0330246
53.61667	-0.03956757
53.63333	-0.05167694
53.65	-0.0620285
53.66667	-0.06495819
53.68333	-0.05929413
53.7	-0.05030975
53.71667	-0.04415741
53.73333	-0.04464569
53.75	-0.04884491
53.76667	-0.05450897
53.78333	-0.06007538
53.8	-0.06105194
53.81667	-0.05616913
53.83333	-0.05138397
53.85	-0.0517746
53.86667	-0.05519257
53.88333	-0.05831756
53.9	-0.06251679
53.91667	-0.06935272
53.93333	-0.0745285
53.95	-0.07062225
53.96667	-0.05841522
53.98333	-0.04816132
54	-0.04503632
54.01667	-0.0439621
54.03333	-0.04152069
54.05	-0.04445038
54.06667	-0.05607147
54.08333	-0.0705246
54.1	-0.08175506
54.11667	-0.08409882
54.13333	-0.07628632
54.15	-0.06183319
54.16667	-0.04786835
54.18333	-0.04132538
54.2	-0.04279022
54.21667	-0.04474335
54.23333	-0.04445038
54.25	-0.04835663
54.26667	-0.05499725
54.28333	-0.05568085
54.3	-0.04835663
54.31667	-0.04298554
54.33333	-0.0455246
54.35	-0.05216522
54.36667	-0.05636444
54.38333	-0.054216
54.4	-0.04542694
54.41667	-0.03468475
54.43333	-0.02950897
54.45	-0.03048554
54.46667	-0.0370285
54.48333	-0.04298554
54.5	-0.04288788
54.51667	-0.03751678
54.53333	-0.03517304
54.55	-0.04191132
54.56667	-0.0486496
54.58333	-0.05089569
54.6	-0.05196991
54.61667	-0.05382538
54.63333	-0.0557785
54.65	-0.05753632
54.66667	-0.05997772
54.68333	-0.06329803
54.7	-0.06476288
54.71667	-0.06280975
54.73333	-0.05655975
54.75	-0.054216
54.76667	-0.06134491
54.78333	-0.07091522
54.8	-0.06876679
54.81667	-0.05558319
54.83333	-0.04347382
54.85	-0.03820038
54.86667	-0.03820038
54.88333	-0.03976288
54.9	-0.04298554
54.91667	-0.04601288
54.93333	-0.04474335
54.95	-0.03839569
54.96667	-0.0307785
54.98333	-0.0276535
55	-0.026091
