"SampleName"	"Dex"
"System Name"	"Alliance 2"
"Sample Set Name"	"DTtV_15052025 GSL new HPLC"
"Date Acquired"	"5/16/2025 1:32:36 PM BST"
"Sample Set Start Date"	"5/15/2025 2:04:31 PM BST"
0	0.0003723144
0.01666667	0.0009565353
0.03333333	-6.29425e-05
0.05	-0.003480911
0.06666667	-0.005922318
0.08333333	-0.0004535675
0.1	0.01575737
0.1166667	0.03460503
0.1333333	0.05052299
0.15	0.06116753
0.1666667	0.06634331
0.1833333	0.06741752
0.2	0.06731987
0.2166667	0.06819878
0.2333333	0.06819878
0.25	0.06966362
0.2666667	0.07220268
0.2833333	0.07181206
0.3	0.06380425
0.3166667	0.05237846
0.3333333	0.0451519
0.35	0.04651909
0.3666667	0.05306206
0.3833333	0.05872612
0.4	0.06429253
0.4166667	0.07259331
0.4333333	0.08069877
0.45	0.08314018
0.4666667	0.075523
0.4833333	0.06468315
0.5	0.05853081
0.5166667	0.0623394
0.5333333	0.0694683
0.55	0.0685894
0.5666667	0.05696831
0.5833333	0.04173393
0.6	0.03128471
0.6166667	0.03216362
0.6333333	0.0451519
0.65	0.06243706
0.6666667	0.07112847
0.6833333	0.06663628
0.7	0.05628471
0.7166667	0.05130424
0.7333333	0.05569877
0.75	0.05911674
0.7666667	0.05267143
0.7833333	0.03939018
0.8	0.03157768
0.8166667	0.03011284
0.8333333	0.02972221
0.85	0.03226127
0.8666667	0.04007377
0.8833333	0.04935112
0.9	0.05218315
0.9166667	0.0482769
0.9333333	0.04075737
0.95	0.03704643
0.9666667	0.04075737
0.9833333	0.04622612
1	0.04612846
1.016667	0.04075737
1.033333	0.03431206
1.05	0.02581596
1.066667	0.01507378
1.083333	0.00794487
1.1	0.007261276
1.116667	0.006772995
1.133333	0.003940964
1.15	0.003745651
1.166667	0.01175346
1.183333	0.02493706
1.2	0.03177299
1.216667	0.02679253
1.233333	0.01692924
1.25	0.01292534
1.266667	0.01380424
1.283333	0.01478081
1.3	0.01644096
1.316667	0.01712456
1.333333	0.01399956
1.35	0.00872612
1.366667	0.001206589
1.383333	-0.01168404
1.4	-0.02711372
1.416667	-0.03707466
1.433333	-0.0329731
1.45	-0.01959419
1.466667	-0.01060982
1.483333	-0.01334419
1.5	-0.02232857
1.516667	-0.02877388
1.533333	-0.03228951
1.55	-0.03150826
1.566667	-0.02115669
1.583333	-0.006801224
1.6	-0.005141067
1.616667	-0.01812935
1.633333	-0.02945747
1.65	-0.02623482
1.666667	-0.01383247
1.683333	-0.003969193
1.7	0.000522995
1.716667	-0.00533638
1.733333	-0.01969185
1.75	-0.03541451
1.766667	-0.04088325
1.783333	-0.03619576
1.8	-0.03238716
1.816667	-0.03180122
1.833333	-0.03014107
1.85	-0.02555122
1.866667	-0.02340279
1.883333	-0.02428169
1.9	-0.02379341
1.916667	-0.02115669
1.933333	-0.01910591
1.95	-0.01930122
1.966667	-0.02154732
1.983333	-0.02760201
2	-0.03814888
2.016667	-0.0470356
2.033333	-0.04644966
2.05	-0.03932076
2.066667	-0.03668404
2.083333	-0.0423481
2.1	-0.04898872
2.116667	-0.0517231
2.133333	-0.05064888
2.15	-0.04351997
2.166667	-0.03043404
2.183333	-0.01978951
2.2	-0.01646919
2.216667	-0.01812935
2.233333	-0.02350044
2.25	-0.03326607
2.266667	-0.04244576
2.283333	-0.04068794
2.3	-0.03707466
2.316667	-0.04518013
2.333333	-0.05982857
2.35	-0.06725045
2.366667	-0.06705513
2.383333	-0.06851997
2.4	-0.0704731
2.416667	-0.06705513
2.433333	-0.06021919
2.45	-0.05543404
2.466667	-0.0517231
2.483333	-0.04498482
2.5	-0.03473091
2.516667	-0.02789497
2.533333	-0.02848091
2.55	-0.03531685
2.566667	-0.03639107
2.583333	-0.02555122
2.6	-0.01256294
2.616667	-0.009535599
2.633333	-0.01539497
2.65	-0.0204731
2.666667	-0.02066841
2.683333	-0.01783638
2.7	-0.01441841
2.716667	-0.008852005
2.733333	-0.003187943
2.75	-0.004262161
2.766667	-0.01588326
2.783333	-0.03277779
2.8	-0.0501606
2.816667	-0.06451607
2.833333	-0.0767231
2.85	-0.08707466
2.866667	-0.09625435
2.883333	-0.1061176
2.9	-0.1123676
2.916667	-0.1101215
2.933333	-0.1004536
2.95	-0.08834419
2.966667	-0.07281685
2.983333	-0.04713326
3	-0.006312943
3.016667	0.04583549
3.033333	0.106773
3.05	0.1770855
3.066667	0.2523785
3.083333	0.3225933
3.1	0.378355
3.116667	0.4200543
3.133333	0.4551128
3.15	0.4882183
3.166667	0.5138043
3.183333	0.5197613
3.2	0.5032574
3.216667	0.4747418
3.233333	0.4513043
3.25	0.4483746
3.266667	0.4748394
3.283333	0.5431011
3.3	0.6771832
3.316667	0.9073589
3.333333	1.236363
3.35	1.593687
3.366667	1.855113
3.383333	1.925621
3.4	1.808336
3.416667	1.5848
3.433333	1.343004
3.45	1.163218
3.466667	1.223863
3.483333	2.02816
3.5	4.480895
3.516667	9.310973
3.533333	15.97767
3.55	22.35541
3.566667	26.05687
3.583333	26.21019
3.6	23.77884
3.616667	20.37084
3.633333	17.09252
3.65	14.32836
3.666667	12.068
3.683333	10.20277
3.7	8.632165
3.716667	7.264001
3.733333	6.018395
3.75	4.859801
3.766667	3.810484
3.783333	2.913804
3.8	2.197105
3.816667	1.651988
3.833333	1.25316
3.85	0.9746441
3.866667	0.7944683
3.883333	0.6858746
3.9	0.6181011
3.916667	0.5721051
3.933333	0.5418316
3.95	0.5274761
3.966667	0.5326519
3.983333	0.5555035
4	0.5794293
4.016667	0.5907574
4.033333	0.588316
4.05	0.584898
4.066667	0.5840191
4.083333	0.5827495
4.1	0.5818707
4.116667	0.5843121
4.133333	0.5856792
4.15	0.5849956
4.166667	0.5887066
4.183333	0.6007183
4.2	0.6178082
4.216667	0.6365582
4.233333	0.6510113
4.25	0.6584331
4.266667	0.6600933
4.283333	0.6595074
4.3	0.6571636
4.316667	0.6495464
4.333333	0.6366558
4.35	0.6211284
4.366667	0.6037456
4.383333	0.5882183
4.4	0.5819683
4.416667	0.5934917
4.433333	0.6170269
4.45	0.6478863
4.466667	0.6871441
4.483333	0.7349957
4.5	0.7794293
4.516667	0.803355
4.533333	0.8038433
4.55	0.7950543
4.566667	0.7869488
4.583333	0.772691
4.6	0.7434918
4.616667	0.7047222
4.633333	0.6572613
4.65	0.5980816
4.666667	0.5342144
4.683333	0.4805035
4.7	0.4406597
4.716667	0.4079449
4.733333	0.3806011
4.75	0.365855
4.766667	0.3745464
4.783333	0.4141949
4.8	0.4839214
4.816667	0.5678082
4.833333	0.650816
4.85	0.7274761
4.866667	0.791441
4.883333	0.8319683
4.9	0.8467144
4.916667	0.8509136
4.933333	0.8653668
4.95	0.9001324
4.966667	0.9584332
4.983333	1.037339
5	1.12855
5.016667	1.21439
5.033333	1.276304
5.05	1.306675
5.066667	1.310582
5.083333	1.294859
5.1	1.264
5.116667	1.223765
5.133333	1.181675
5.15	1.140464
5.166667	1.1015
5.183333	1.063902
5.2	1.027378
5.216667	0.9916363
5.233333	0.9637066
5.25	0.9447613
5.266667	0.9298199
5.283333	0.9174175
5.3	0.915562
5.316667	0.9264019
5.333333	0.9394878
5.35	0.9500347
5.366667	0.9558941
5.383333	0.9606792
5.4	0.9604839
5.416667	0.9477886
5.433333	0.9181011
5.45	0.8763043
5.466667	0.8399761
5.483333	0.8181988
5.5	0.809898
5.516667	0.8149761
5.533333	0.8454449
5.55	0.9228863
5.566667	1.086558
5.583333	1.433531
5.6	2.220347
5.616667	4.020055
5.633333	7.905407
5.65	15.52181
5.666667	28.8973
5.683333	49.84212
5.7	78.98197
5.716667	114.8121
5.733333	153.457
5.75	189.5138
5.766667	217.6274
5.783333	234.0702
5.8	237.6512
5.816667	229.66
5.833333	213.0486
5.85	191.3343
5.866667	167.6841
5.883333	144.3999
5.9	122.8427
5.916667	103.6325
5.933333	86.88676
5.95	72.42767
5.966667	59.9809
5.983333	49.2932
6	40.14535
6.016667	32.35482
6.033333	25.7807
6.05	20.31644
6.066667	15.85433
6.083333	12.2764
6.1	9.459021
6.116667	7.281286
6.133333	5.629723
6.15	4.396129
6.166667	3.485777
6.183333	2.818589
6.2	2.330503
6.216667	1.969859
6.233333	1.70023
6.25	1.491246
6.266667	1.321031
6.283333	1.182847
6.3	1.080601
6.316667	1.006285
6.333333	0.9434918
6.35	0.884312
6.366667	0.8291363
6.383333	0.7771832
6.4	0.725523
6.416667	0.6760113
6.433333	0.6335308
6.45	0.6027691
6.466667	0.5818707
6.483333	0.563316
6.5	0.5384136
6.516667	0.5089214
6.533333	0.4849957
6.55	0.4739605
6.566667	0.4716167
6.583333	0.4706402
6.6	0.4676128
6.616667	0.4631206
6.633333	0.4552105
6.65	0.4431988
6.666667	0.4299175
6.683333	0.419566
6.7	0.4080425
6.716667	0.3916363
6.733333	0.372691
6.75	0.3566753
6.766667	0.3450542
6.783333	0.3364605
6.8	0.3312847
6.816667	0.3274761
6.833333	0.3187847
6.85	0.3019878
6.866667	0.2800152
6.883333	0.2637066
6.9	0.2554058
6.916667	0.2492535
6.933333	0.2363628
6.95	0.2181011
6.966667	0.2043316
6.983333	0.2032574
7	0.2108746
7.016667	0.2134136
7.033333	0.2086285
7.05	0.1991558
7.066667	0.1885113
7.083333	0.1756206
7.1	0.1592144
7.116667	0.1437847
7.133333	0.1373394
7.15	0.1486675
7.166667	0.1701519
7.183333	0.1903667
7.2	0.213023
7.216667	0.247398
7.233333	0.2917339
7.25	0.3386089
7.266667	0.3865581
7.283333	0.4347027
7.3	0.4847027
7.316667	0.5430034
7.333333	0.6139995
7.35	0.6844097
7.366667	0.7334331
7.383333	0.7553082
7.4	0.7578472
7.416667	0.750816
7.433333	0.7371441
7.45	0.7200543
7.466667	0.7060894
7.483333	0.7021831
7.5	0.7032574
7.516667	0.7007183
7.533333	0.6910504
7.55	0.6758159
7.566667	0.6545269
7.583333	0.6305035
7.6	0.6059917
7.616667	0.5806011
7.633333	0.547398
7.65	0.5073589
7.666667	0.4722027
7.683333	0.4455425
7.7	0.4239605
7.716667	0.4038433
7.733333	0.3905621
7.75	0.3844097
7.766667	0.3793316
7.783333	0.3739605
7.8	0.3719097
7.816667	0.36898
7.833333	0.356187
7.85	0.3293316
7.866667	0.2987652
7.883333	0.2732769
7.9	0.2531597
7.916667	0.2353863
7.933333	0.2199566
7.95	0.2034527
7.966667	0.1854839
7.983333	0.1653667
8	0.1454449
8.016667	0.1270855
8.033333	0.1160503
8.05	0.1193707
8.066667	0.1345074
8.083333	0.1496441
8.1	0.163316
8.116667	0.1816753
8.133333	0.2071636
8.15	0.2310894
8.166667	0.2401714
8.183333	0.2341167
8.2	0.2228863
8.216667	0.213023
8.233333	0.2013042
8.25	0.1888042
8.266667	0.1821636
8.283333	0.1830425
8.3	0.1847027
8.316667	0.1837261
8.333333	0.1835308
8.35	0.1931011
8.366667	0.2177105
8.383333	0.2583355
8.4	0.3106793
8.416667	0.3657574
8.433333	0.4208355
8.45	0.4853863
8.466667	0.5619488
8.483333	0.6436871
8.5	0.7180035
8.516667	0.7764996
8.533333	0.8115581
8.55	0.819273
8.566667	0.8060894
8.583333	0.7777691
8.6	0.7355816
8.616667	0.6810894
8.633333	0.6212261
8.65	0.5615581
8.666667	0.5072613
8.683333	0.465562
8.7	0.4330425
8.716667	0.3967144
8.733333	0.3578472
8.75	0.3326519
8.766667	0.3264019
8.783333	0.3251324
8.8	0.3216167
8.816667	0.3298199
8.833333	0.3710308
8.85	0.4636089
8.866667	0.640855
8.883333	0.9637066
8.9	1.519175
8.916667	2.418199
8.933333	3.806383
8.95	5.858629
8.966667	8.761267
8.983333	12.67738
9	17.69818
9.016667	23.78168
9.033333	30.72396
9.05	38.18431
9.066667	45.69662
9.083333	52.69906
9.1	58.61576
9.116667	62.97084
9.133333	65.4684
9.15	66.01839
9.166667	64.73997
9.183333	61.91742
9.2	57.93304
9.216667	53.19769
9.233333	48.09652
9.25	42.94935
9.266667	37.99457
9.283333	33.38949
9.3	29.20257
9.316667	25.43607
9.333333	22.0681
9.35	19.07728
9.366667	16.43431
9.383333	14.08968
9.4	12.00033
9.416667	10.13988
9.433333	8.499743
9.45	7.074059
9.466667	5.853063
9.483333	4.816247
9.5	3.937633
9.516667	3.198472
9.533333	2.589586
9.55	2.102086
9.566667	1.719664
9.583333	1.419273
9.6	1.179039
9.616667	0.9823589
9.633333	0.8231792
9.65	0.7004253
9.666667	0.6119488
9.683333	0.5465191
9.7	0.4938824
9.716667	0.4460308
9.733333	0.403648
9.75	0.371812
9.766667	0.3550152
9.783333	0.3497418
9.8	0.3475933
9.816667	0.3461285
9.833333	0.3465191
9.85	0.3427105
9.866667	0.3306011
9.883333	0.3207378
9.9	0.316441
9.916667	0.306773
9.933333	0.2849956
9.95	0.2636089
9.966667	0.2480816
9.983333	0.2326519
10	0.2108746
10.01667	0.1870464
10.03333	0.1673199
10.05	0.1517925
10.06667	0.1395855
10.08333	0.1324566
10.1	0.1316753
10.11667	0.1325542
10.13333	0.1262066
10.15	0.1149761
10.16667	0.1117535
10.18333	0.1174175
10.2	0.1184917
10.21667	0.1077496
10.23333	0.09759331
10.25	0.09661674
10.26667	0.09573784
10.28333	0.08724175
10.3	0.07786675
10.31667	0.07278862
10.33333	0.0670269
10.35	0.06360893
10.36667	0.06898002
10.38333	0.07884331
10.4	0.08470269
10.41667	0.08343315
10.43333	0.07864799
10.45	0.07317924
10.46667	0.06761284
10.48333	0.0670269
10.5	0.07122612
10.51667	0.07230034
10.53333	0.06634331
10.55	0.06185112
10.56667	0.06439018
10.58333	0.06731987
10.6	0.06605034
10.61667	0.06360893
10.63333	0.0639019
10.65	0.06302299
10.66667	0.056773
10.68333	0.04837456
10.7	0.04398002
10.71667	0.04437065
10.73333	0.04583549
10.75	0.05315971
10.76667	0.0701519
10.78333	0.08489799
10.8	0.081773
10.81667	0.06692924
10.83333	0.05882378
10.85	0.06526909
10.86667	0.08040581
10.88333	0.09231987
10.9	0.09134331
10.91667	0.07747612
10.93333	0.06263237
10.95	0.05384331
10.96667	0.05228081
10.98333	0.05540581
11	0.06009331
11.01667	0.06146049
11.03333	0.05774956
11.05	0.05481987
11.06667	0.06165581
11.08333	0.07855034
11.1	0.09788628
11.11667	0.1107769
11.13333	0.1180035
11.15	0.1175152
11.16667	0.1091167
11.18333	0.09808159
11.2	0.09124565
11.21667	0.08978081
11.23333	0.091148
11.25	0.09612846
11.26667	0.1049175
11.28333	0.1173199
11.3	0.1303082
11.31667	0.1374371
11.33333	0.1386089
11.35	0.1388042
11.36667	0.1415386
11.38333	0.1457378
11.4	0.1529644
11.41667	0.1637066
11.43333	0.1805035
11.45	0.1990581
11.46667	0.2142925
11.48333	0.2205425
11.5	0.225523
11.51667	0.2390972
11.53333	0.2619488
11.55	0.2885113
11.56667	0.3184918
11.58333	0.3497418
11.6	0.3762066
11.61667	0.3991558
11.63333	0.4228863
11.65	0.4410504
11.66667	0.4455425
11.68333	0.4382183
11.7	0.43148
11.71667	0.4364605
11.73333	0.4506207
11.75	0.4615582
11.76667	0.4545269
11.78333	0.4333355
11.8	0.4124371
11.81667	0.4023785
11.83333	0.3956402
11.85	0.3801128
11.86667	0.3549175
11.88333	0.3342144
11.9	0.3279644
11.91667	0.3306988
11.93333	0.3308941
11.95	0.3263043
11.96667	0.3228863
11.98333	0.3217144
12	0.3149761
12.01667	0.2970074
12.03333	0.2764996
12.05	0.26898
12.06667	0.2775738
12.08333	0.2931011
12.1	0.3060894
12.11667	0.313023
12.13333	0.3135113
12.15	0.3098003
12.16667	0.3077496
12.18333	0.313316
12.2	0.3278667
12.21667	0.3443707
12.23333	0.3518902
12.25	0.3511089
12.26667	0.3532574
12.28333	0.3660503
12.3	0.3858746
12.31667	0.3977886
12.33333	0.3948589
12.35	0.38148
12.36667	0.3668316
12.38333	0.3598003
12.4	0.3615581
12.41667	0.3724957
12.43333	0.3830425
12.45	0.382066
12.46667	0.3709331
12.48333	0.3656597
12.5	0.3747417
12.51667	0.3887066
12.53333	0.3964214
12.55	0.403062
12.56667	0.4219097
12.58333	0.4515972
12.6	0.4797222
12.61667	0.4955425
12.63333	0.5066754
12.65	0.5250347
12.66667	0.5568706
12.68333	0.5881206
12.7	0.6054058
12.71667	0.6093121
12.73333	0.609605
12.75	0.6115581
12.76667	0.6141949
12.78333	0.6149761
12.8	0.6111676
12.81667	0.6015972
12.83333	0.587437
12.85	0.569566
12.86667	0.5508159
12.88333	0.5342144
12.9	0.5224956
12.91667	0.5086285
12.93333	0.4859722
12.95	0.4615582
12.96667	0.4480816
12.98333	0.4489605
13	0.4514996
13.01667	0.4437847
13.03333	0.4259136
13.05	0.4053082
13.06667	0.3891949
13.08333	0.3790386
13.1	0.3732769
13.11667	0.3740582
13.13333	0.3829449
13.15	0.3963238
13.16667	0.4058941
13.18333	0.403941
13.2	0.3961285
13.21667	0.3950543
13.23333	0.4055035
13.25	0.4249371
13.26667	0.4451519
13.28333	0.4662457
13.3	0.4844097
13.31667	0.4980816
13.33333	0.5102886
13.35	0.5274761
13.36667	0.5520855
13.38333	0.5771831
13.4	0.6025738
13.41667	0.6332378
13.43333	0.6730816
13.45	0.7167339
13.46667	0.7531597
13.48333	0.7741558
13.5	0.7834331
13.51667	0.7903668
13.53333	0.7969097
13.55	0.7982769
13.56667	0.7954448
13.58333	0.7913433
13.6	0.7859722
13.61667	0.7797222
13.63333	0.7716168
13.65	0.7586285
13.66667	0.7397808
13.68333	0.719273
13.7	0.7012066
13.71667	0.6903667
13.73333	0.6777691
13.75	0.6561871
13.76667	0.6334332
13.78333	0.6188824
13.8	0.61273
13.81667	0.6065777
13.83333	0.6021832
13.85	0.6033551
13.86667	0.6050152
13.88333	0.6000347
13.9	0.5935894
13.91667	0.5946636
13.93333	0.600816
13.95	0.6029644
13.96667	0.5986675
13.98333	0.5937847
14	0.5938824
14.01667	0.5959331
14.03333	0.594566
14.05	0.5887066
14.06667	0.5861675
14.08333	0.5944683
14.1	0.6126324
14.11667	0.6362652
14.13333	0.659605
14.15	0.6850933
14.16667	0.7250347
14.18333	0.8017925
14.2	0.9325542
14.21667	1.132457
14.23333	1.425328
14.25	1.83607
14.26667	2.387144
14.28333	3.112535
14.3	4.063024
14.31667	5.281285
14.33333	6.783238
14.35	8.572887
14.36667	10.64828
14.38333	12.98656
14.4	15.54574
14.41667	18.26937
14.43333	21.07845
14.45	23.85756
14.46667	26.47347
14.48333	28.80687
14.5	30.7641
14.51667	32.27357
14.53333	33.27592
14.55	33.73041
14.56667	33.63578
14.58333	33.03236
14.6	31.9847
14.61667	30.56322
14.63333	28.84867
14.65	26.93744
14.66667	24.92113
14.68333	22.87543
14.7	20.86039
14.71667	18.92464
14.73333	17.10492
14.75	15.41996
14.76667	13.87728
14.78333	12.47855
14.8	11.22035
14.81667	10.09437
14.83333	9.08734
14.85	8.188513
14.86667	7.384215
14.88333	6.65902
14.9	5.999645
14.91667	5.400914
14.93333	4.862828
14.95	4.380113
14.96667	3.945641
14.98333	3.551695
15	3.195836
15.01667	2.877378
15.03333	2.595347
15.05	2.343101
15.06667	2.114683
15.08333	1.912339
15.1	1.735777
15.11667	1.579332
15.13333	1.438707
15.15	1.322593
15.16667	1.235093
15.18333	1.17191
15.2	1.116636
15.21667	1.057457
15.23333	1.000718
15.25	0.9599956
15.26667	0.9371441
15.28333	0.9191753
15.3	0.8989605
15.31667	0.8776714
15.33333	0.8568707
15.35	0.8397808
15.36667	0.825816
15.38333	0.8176128
15.4	0.8152691
15.41667	0.8162457
15.43333	0.8172222
15.45	0.8149761
15.46667	0.8112652
15.48333	0.8087261
15.5	0.8098003
15.51667	0.8141949
15.53333	0.8138043
15.55	0.8014995
15.56667	0.7829449
15.58333	0.7730816
15.6	0.7751324
15.61667	0.7776715
15.63333	0.7693707
15.65	0.7557964
15.66667	0.7521831
15.68333	0.7588238
15.7	0.7615582
15.71667	0.7571636
15.73333	0.7538433
15.75	0.7515972
15.76667	0.7465191
15.78333	0.7440777
15.8	0.7470074
15.81667	0.7544292
15.83333	0.7637066
15.85	0.7741558
15.86667	0.7808941
15.88333	0.7830426
15.9	0.7865582
15.91667	0.7912456
15.93333	0.7931011
15.95	0.7889996
15.96667	0.7832378
15.98333	0.7778667
16	0.7752301
16.01667	0.7764019
16.03333	0.7784527
16.05	0.7792339
16.06667	0.7793316
16.08333	0.7803081
16.1	0.7819683
16.11667	0.7862652
16.13333	0.7931988
16.15	0.7970074
16.16667	0.7968121
16.18333	0.7974957
16.2	0.8020855
16.21667	0.806187
16.23333	0.8085308
16.25	0.81273
16.26667	0.8209332
16.28333	0.8272808
16.3	0.8271831
16.31667	0.8238629
16.33333	0.8214214
16.35	0.8212261
16.36667	0.822691
16.38333	0.8284527
16.4	0.837437
16.41667	0.8428081
16.43333	0.8459331
16.45	0.8512066
16.46667	0.8597027
16.48333	0.8676128
16.5	0.8741558
16.51667	0.8801128
16.53333	0.8863629
16.55	0.8933941
16.56667	0.8967144
16.58333	0.8953472
16.6	0.8923199
16.61667	0.8916363
16.63333	0.894273
16.65	0.8954449
16.66667	0.8941754
16.68333	0.8916363
16.7	0.8947613
16.71667	0.9021832
16.73333	0.9065777
16.75	0.9082378
16.76667	0.9135113
16.78333	0.9217144
16.8	0.9248394
16.81667	0.9218121
16.83333	0.9188824
16.85	0.9222027
16.86667	0.931773
16.88333	0.9415386
16.9	0.9458355
16.91667	0.9478863
16.93333	0.9538433
16.95	0.9644879
16.96667	0.9761089
16.98333	0.9897808
17	1.0098
17.01667	1.035972
17.03333	1.064878
17.05	1.094078
17.06667	1.121421
17.08333	1.14525
17.1	1.161461
17.11667	1.173277
17.13333	1.185875
17.15	1.203941
17.16667	1.221421
17.18333	1.233921
17.2	1.241734
17.21667	1.242906
17.23333	1.237339
17.25	1.228355
17.26667	1.22064
17.28333	1.211558
17.3	1.19525
17.31667	1.174742
17.33333	1.156089
17.35	1.141929
17.36667	1.12689
17.38333	1.108629
17.4	1.091734
17.41667	1.078843
17.43333	1.073277
17.45	1.071324
17.46667	1.066832
17.48333	1.059507
17.5	1.054234
17.51667	1.053355
17.53333	1.053062
17.55	1.054429
17.56667	1.059605
17.58333	1.065074
17.6	1.068687
17.61667	1.075816
17.63333	1.090855
17.65	1.104918
17.66667	1.113511
17.68333	1.118199
17.7	1.121812
17.71667	1.129039
17.73333	1.141929
17.75	1.16273
17.76667	1.182847
17.78333	1.193296
17.8	1.191148
17.81667	1.182457
17.83333	1.179722
17.85	1.19105
17.86667	1.210191
17.88333	1.224839
17.9	1.232457
17.91667	1.23773
17.93333	1.240171
17.95	1.240562
17.96667	1.242906
17.98333	1.246519
18	1.246519
18.01667	1.244664
18.03333	1.246714
18.05	1.254234
18.06667	1.263511
18.08333	1.278453
18.1	1.299839
18.11667	1.321226
18.13333	1.339195
18.15	1.347398
18.16667	1.347203
18.18333	1.343589
18.2	1.343589
18.21667	1.351597
18.23333	1.366636
18.25	1.384996
18.26667	1.396226
18.28333	1.398082
18.3	1.39691
18.31667	1.399351
18.33333	1.405796
18.35	1.413707
18.36667	1.425914
18.38333	1.439781
18.4	1.448863
18.41667	1.449253
18.43333	1.445152
18.45	1.444371
18.46667	1.44691
18.48333	1.447593
18.5	1.446324
18.51667	1.446226
18.53333	1.445347
18.55	1.441929
18.56667	1.440562
18.58333	1.442613
18.6	1.441539
18.61667	1.434117
18.63333	1.424253
18.65	1.413121
18.66667	1.40482
18.68333	1.40189
18.7	1.404429
18.71667	1.406382
18.73333	1.401597
18.75	1.39066
18.76667	1.380699
18.78333	1.380503
18.8	1.395445
18.81667	1.419566
18.83333	1.442418
18.85	1.461265
18.86667	1.477281
18.88333	1.491246
18.9	1.502085
18.91667	1.511949
18.93333	1.517906
18.95	1.513902
18.96667	1.504625
18.98333	1.501597
19	1.507359
19.01667	1.509214
19.03333	1.495445
19.05	1.476109
19.06667	1.464683
19.08333	1.463316
19.1	1.463609
19.11667	1.457066
19.13333	1.440269
19.15	1.415953
19.16667	1.39398
19.18333	1.380211
19.2	1.369957
19.21667	1.360386
19.23333	1.348375
19.25	1.336363
19.26667	1.326304
19.28333	1.324156
19.3	1.33021
19.31667	1.339683
19.33333	1.344078
19.35	1.34105
19.36667	1.334605
19.38333	1.329722
19.4	1.327183
19.41667	1.325132
19.43333	1.322691
19.45	1.320152
19.46667	1.312339
19.48333	1.297398
19.5	1.287046
19.51667	1.293785
19.53333	1.308921
19.55	1.317808
19.56667	1.319273
19.58333	1.319371
19.6	1.321226
19.61667	1.32689
19.63333	1.337144
19.65	1.345835
19.66667	1.353355
19.68333	1.366734
19.7	1.395445
19.71667	1.449449
19.73333	1.536363
19.75	1.666148
19.76667	1.854136
19.78333	2.127867
19.8	2.520933
19.81667	3.065562
19.83333	3.792222
19.85	4.736363
19.86667	5.930797
19.88333	7.399548
19.9	9.148571
19.91667	11.16351
19.93333	13.40179
19.95	15.78861
19.96667	18.23461
19.98333	20.64798
20	22.92611
20.01667	24.94876
20.03333	26.6014
20.05	27.8015
20.06667	28.50775
20.08333	28.71234
20.1	28.43333
20.11667	27.71107
20.13333	26.61097
20.15	25.2223
20.16667	23.63509
20.18333	21.92464
20.2	20.15638
20.21667	18.39857
20.23333	16.70902
20.25	15.11996
20.26667	13.64574
20.28333	12.2972
20.3	11.08129
20.31667	9.997399
20.33333	9.034606
20.35	8.177771
20.36667	7.40902
20.38333	6.723376
20.4	6.117223
20.41667	5.57445
20.43333	5.076305
20.45	4.622008
20.46667	4.218492
20.48333	3.864195
20.5	3.547496
20.51667	3.260386
20.53333	3.001695
20.55	2.772984
20.56667	2.578453
20.58333	2.413707
20.6	2.267515
20.61667	2.135581
20.63333	2.024058
20.65	1.933238
20.66667	1.855406
20.68333	1.786656
20.7	1.731187
20.71667	1.688414
20.73333	1.654039
20.75	1.624742
20.76667	1.598179
20.78333	1.575816
20.8	1.561949
20.81667	1.553843
20.83333	1.544078
20.85	1.535093
20.86667	1.535582
20.88333	1.539781
20.9	1.537925
20.91667	1.530699
20.93333	1.527476
20.95	1.529234
20.96667	1.531675
20.98333	1.535093
21	1.542808
21.01667	1.552183
21.03333	1.558921
21.05	1.562925
21.06667	1.566246
21.08333	1.570054
21.1	1.5723
21.11667	1.569566
21.13333	1.559117
21.15	1.542613
21.16667	1.53441
21.18333	1.546421
21.2	1.566734
21.21667	1.574351
21.23333	1.566148
21.25	1.563121
21.26667	1.576304
21.28333	1.594078
21.3	1.602183
21.31667	1.599253
21.33333	1.592613
21.35	1.590464
21.36667	1.597593
21.38333	1.610777
21.4	1.624742
21.41667	1.634312
21.43333	1.634703
21.45	1.626793
21.46667	1.62191
21.48333	1.633726
21.5	1.653843
21.51667	1.667808
21.53333	1.665562
21.55	1.656382
21.56667	1.652086
21.58333	1.653648
21.6	1.654039
21.61667	1.649644
21.63333	1.64105
21.65	1.634898
21.66667	1.63939
21.68333	1.654722
21.7	1.673082
21.71667	1.684703
21.73333	1.691832
21.75	1.700425
21.76667	1.714781
21.78333	1.732652
21.8	1.75189
21.81667	1.767515
21.83333	1.778746
21.85	1.789585
21.86667	1.801597
21.88333	1.81439
21.9	1.831675
21.91667	1.853843
21.93333	1.879527
21.95	1.909019
21.96667	1.939195
21.98333	1.961656
22	1.974546
22.01667	1.986753
22.03333	2.004722
22.05	2.022886
22.06667	2.033921
22.08333	2.036656
22.1	2.035289
22.11667	2.035679
22.13333	2.039878
22.15	2.045152
22.16667	2.046812
22.18333	2.044664
22.2	2.037925
22.21667	2.027183
22.23333	2.012046
22.25	1.995445
22.26667	1.98314
22.28333	1.977476
22.3	1.974351
22.31667	1.967222
22.33333	1.954039
22.35	1.942515
22.36667	1.938609
22.38333	1.938414
22.4	1.937632
22.41667	1.935679
22.43333	1.934703
22.45	1.938218
22.46667	1.946031
22.48333	1.951011
22.5	1.948961
22.51667	1.9473
22.53333	1.952964
22.55	1.964293
22.56667	1.973179
22.58333	1.979625
22.6	1.986656
22.61667	1.997691
22.63333	2.012828
22.65	2.025132
22.66667	2.030308
22.68333	2.032554
22.7	2.040562
22.71667	2.056382
22.73333	2.071324
22.75	2.079234
22.76667	2.083531
22.78333	2.093004
22.8	2.109214
22.81667	2.127671
22.83333	2.142613
22.85	2.158433
22.86667	2.180308
22.88333	2.20355
22.9	2.224546
22.91667	2.241734
22.93333	2.258921
22.95	2.27357
22.96667	2.281382
22.98333	2.282945
23	2.283238
23.01667	2.28646
23.03333	2.289878
23.05	2.29398
23.06667	2.303355
23.08333	2.318589
23.1	2.32982
23.11667	2.333824
23.13333	2.338511
23.15	2.347593
23.16667	2.351988
23.18333	2.346128
23.2	2.335875
23.21667	2.328355
23.23333	2.324058
23.25	2.319957
23.26667	2.315464
23.28333	2.309703
23.3	2.302964
23.31667	2.294761
23.33333	2.284019
23.35	2.272886
23.36667	2.259703
23.38333	2.248765
23.4	2.248472
23.41667	2.263609
23.43333	2.28646
23.45	2.302476
23.46667	2.301402
23.48333	2.288511
23.5	2.280992
23.51667	2.286949
23.53333	2.300035
23.55	2.30775
23.56667	2.308238
23.58333	2.305503
23.6	2.302671
23.61667	2.301207
23.63333	2.300035
23.65	2.296422
23.66667	2.284214
23.68333	2.268003
23.7	2.251792
23.71667	2.238707
23.73333	2.227769
23.75	2.216832
23.76667	2.207554
23.78333	2.200425
23.8	2.194566
23.81667	2.183921
23.83333	2.167906
23.85	2.15355
23.86667	2.146324
23.88333	2.139195
23.9	2.126207
23.91667	2.111949
23.93333	2.101402
23.95	2.09105
23.96667	2.07816
23.98333	2.069273
24	2.064976
24.01667	2.060093
24.03333	2.04896
24.05	2.038902
24.06667	2.041441
24.08333	2.050035
24.1	2.050914
24.11667	2.038023
24.13333	2.021226
24.15	2.015464
24.16667	2.025035
24.18333	2.040855
24.2	2.050132
24.21667	2.050523
24.23333	2.049839
24.25	2.05355
24.26667	2.060874
24.28333	2.066148
24.3	2.063218
24.31667	2.05355
24.33333	2.045542
24.35	2.047886
24.36667	2.063414
24.38333	2.089976
24.4	2.122496
24.41667	2.161168
24.43333	2.214
24.45	2.29398
24.46667	2.41439
24.48333	2.590269
24.5	2.845738
24.51667	3.209214
24.53333	3.705992
24.55	4.358043
24.56667	5.186656
24.58333	6.214977
24.6	7.455504
24.61667	8.905993
24.63333	10.54965
24.65	12.34955
24.66667	14.25091
24.68333	16.1846
24.7	18.07045
24.71667	19.81429
24.73333	21.32572
24.75	22.53226
24.76667	23.38646
24.78333	23.85394
24.8	23.92757
24.81667	23.62992
24.83333	22.99779
24.85	22.07513
24.86667	20.92601
24.88333	19.62963
24.9	18.25199
24.91667	16.85082
24.93333	15.47621
24.95	14.16488
24.96667	12.93216
24.98333	11.78207
25	10.72347
25.01667	9.77025
25.03333	8.922301
25.05	8.161559
25.06667	7.467907
25.08333	6.838512
25.1	6.275134
25.11667	5.777477
25.13333	5.339879
25.15	4.950719
25.16667	4.595934
25.18333	4.271129
25.2	3.984117
25.21667	3.737047
25.23333	3.520152
25.25	3.323472
25.26667	3.144957
25.28333	2.988511
25.3	2.854722
25.31667	2.741246
25.33333	2.646519
25.35	2.565367
25.36667	2.496617
25.38333	2.44105
25.4	2.393589
25.41667	2.351207
25.43333	2.317906
25.45	2.30316
25.46667	2.301402
25.48333	2.295445
25.5	2.274351
25.51667	2.243296
25.53333	2.217124
25.55	2.203062
25.56667	2.196617
25.58333	2.19105
25.6	2.188511
25.61667	2.191734
25.63333	2.197593
25.65	2.20316
25.66667	2.208921
25.68333	2.211656
25.7	2.209996
25.71667	2.205601
25.73333	2.20521
25.75	2.208628
25.76667	2.213023
25.78333	2.215171
25.8	2.208531
25.81667	2.195152
25.83333	2.184996
25.85	2.185679
25.86667	2.196519
25.88333	2.209898
25.9	2.220152
25.91667	2.227183
25.93333	2.229331
25.95	2.227476
25.96667	2.226304
25.98333	2.22855
26	2.229918
26.01667	2.226695
26.03333	2.224058
26.05	2.230504
26.06667	2.2473
26.08333	2.267808
26.1	2.284214
26.11667	2.294957
26.13333	2.305015
26.15	2.323863
26.16667	2.348082
26.18333	2.364488
26.2	2.374254
26.21667	2.386265
26.23333	2.4015
26.25	2.411265
26.26667	2.410386
26.28333	2.402086
26.3	2.393589
26.31667	2.388023
26.33333	2.384996
26.35	2.384019
26.36667	2.383921
26.38333	2.379625
26.4	2.363902
26.41667	2.343394
26.43333	2.328941
26.45	2.328355
26.46667	2.335093
26.48333	2.337535
26.5	2.335093
26.51667	2.331285
26.53333	2.327574
26.55	2.320738
26.56667	2.312339
26.58333	2.30482
26.6	2.298179
26.61667	2.292222
26.63333	2.291636
26.65	2.297105
26.66667	2.304625
26.68333	2.313609
26.7	2.324449
26.71667	2.334605
26.73333	2.338218
26.75	2.332359
26.76667	2.327085
26.78333	2.337828
26.8	2.367027
26.81667	2.4015
26.83333	2.428355
26.85	2.448765
26.86667	2.476402
26.88333	2.509996
26.9	2.540269
26.91667	2.565171
26.93333	2.590269
26.95	2.614683
26.96667	2.636558
26.98333	2.659605
27	2.691343
27.01667	2.724351
27.03333	2.746226
27.05	2.759019
27.06667	2.770933
27.08333	2.786265
27.1	2.799058
27.11667	2.805796
27.13333	2.814
27.15	2.826695
27.16667	2.839879
27.18333	2.846226
27.2	2.847984
27.21667	2.847398
27.23333	2.844273
27.25	2.839586
27.26667	2.833824
27.28333	2.822496
27.3	2.801304
27.31667	2.775816
27.33333	2.759507
27.35	2.753062
27.36667	2.747203
27.38333	2.739488
27.4	2.730601
27.41667	2.724742
27.43333	2.723668
27.45	2.722203
27.46667	2.714683
27.48333	2.703062
27.5	2.698863
27.51667	2.699937
27.53333	2.697203
27.55	2.687242
27.56667	2.675523
27.58333	2.66566
27.6	2.659214
27.61667	2.658238
27.63333	2.668296
27.65	2.688609
27.66667	2.710679
27.68333	2.72396
27.7	2.726988
27.71667	2.728746
27.73333	2.732945
27.75	2.739195
27.76667	2.745933
27.78333	2.752964
27.8	2.753746
27.81667	2.743101
27.83333	2.723668
27.85	2.702281
27.86667	2.682652
27.88333	2.659312
27.9	2.634605
27.91667	2.611363
27.93333	2.593492
27.95	2.578843
27.96667	2.572593
27.98333	2.575718
28	2.582945
28.01667	2.581773
28.03333	2.568199
28.05	2.546617
28.06667	2.525523
28.08333	2.512437
28.1	2.510581
28.11667	2.517515
28.13333	2.521617
28.15	2.514781
28.16667	2.501109
28.18333	2.491148
28.2	2.489585
28.21667	2.494956
28.23333	2.505796
28.25	2.515464
28.26667	2.521031
28.28333	2.523765
28.3	2.526109
28.31667	2.529332
28.33333	2.531089
28.35	2.530601
28.36667	2.527964
28.38333	2.527086
28.4	2.53275
28.41667	2.546129
28.43333	2.561656
28.45	2.578843
28.46667	2.603453
28.48333	2.642515
28.5	2.701304
28.51667	2.791831
28.53333	2.932847
28.55	3.141929
28.56667	3.431871
28.58333	3.816539
28.6	4.314879
28.61667	4.948571
28.63333	5.738219
28.65	6.692224
28.66667	7.807458
28.68333	9.066344
28.7	10.43695
28.71667	11.8723
28.73333	13.32201
28.75	14.73656
28.76667	16.06117
28.78333	17.23617
28.8	18.20345
28.81667	18.91556
28.83333	19.34984
28.85	19.50433
28.86667	19.38158
28.88333	18.99603
28.9	18.38207
28.91667	17.58949
28.93333	16.66791
28.95	15.66693
28.96667	14.62738
28.98333	13.57621
29	12.53998
29.01667	11.55609
29.03333	10.64701
29.05	9.80902
29.06667	9.034801
29.08333	8.329626
29.1	7.697595
29.11667	7.12943
29.13333	6.613513
29.15	6.147496
29.16667	5.729918
29.18333	5.3557
29.2	5.018883
29.21667	4.716051
29.23333	4.445933
29.25	4.203649
29.26667	3.985875
29.28333	3.794762
29.3	3.630894
29.31667	3.490757
29.33333	3.362437
29.35	3.240074
29.36667	3.127964
29.38333	3.035972
29.4	2.966734
29.41667	2.91439
29.43333	2.870152
29.45	2.826695
29.46667	2.780797
29.48333	2.738707
29.5	2.70814
29.51667	2.688121
29.53333	2.673472
29.55	2.662144
29.56667	2.65775
29.58333	2.651304
29.6	2.63314
29.61667	2.60648
29.63333	2.588902
29.65	2.586851
29.66667	2.592417
29.68333	2.596812
29.7	2.600621
29.71667	2.607847
29.73333	2.621031
29.75	2.64066
29.76667	2.659214
29.78333	2.672984
29.8	2.679136
29.81667	2.687535
29.83333	2.708433
29.85	2.741929
29.86667	2.771617
29.88333	2.780797
29.9	2.771617
29.91667	2.762242
29.93333	2.764195
29.95	2.772593
29.96667	2.776597
29.98333	2.772496
30	2.768101
30.01667	2.768687
30.03333	2.769371
30.05	2.767808
30.06667	2.765464
30.08333	2.761558
30.1	2.750035
30.11667	2.7348
30.13333	2.725425
30.15	2.722496
30.16667	2.716832
30.18333	2.705308
30.2	2.697203
30.21667	2.698179
30.23333	2.700328
30.25	2.697398
30.26667	2.696714
30.28333	2.707066
30.3	2.722007
30.31667	2.727281
30.33333	2.723765
30.35	2.723179
30.36667	2.730113
30.38333	2.738707
30.4	2.743492
30.41667	2.753843
30.43333	2.779234
30.45	2.814292
30.46667	2.842222
30.48333	2.857164
30.5	2.864781
30.51667	2.870836
30.53333	2.883921
30.55	2.912242
30.56667	2.955113
30.58333	2.999839
30.6	3.039488
30.61667	3.073961
30.63333	3.101011
30.65	3.122398
30.66667	3.150132
30.68333	3.189292
30.7	3.229918
30.71667	3.26107
30.73333	3.277671
30.75	3.2848
30.76667	3.288316
30.78333	3.294468
30.8	3.30189
30.81667	3.306382
30.83333	3.304918
30.85	3.300328
30.86667	3.29691
30.88333	3.289976
30.9	3.275816
30.91667	3.261265
30.93333	3.254527
30.95	3.249742
30.96667	3.232457
30.98333	3.204625
31	3.181773
31.01667	3.168785
31.03333	3.157847
31.05	3.150523
31.06667	3.146519
31.08333	3.135777
31.1	3.109117
31.11667	3.076695
31.13333	3.055796
31.15	3.052867
31.16667	3.059507
31.18333	3.065562
31.2	3.067808
31.21667	3.068589
31.23333	3.072691
31.25	3.081675
31.26667	3.089586
31.28333	3.090562
31.3	3.08773
31.31667	3.089097
31.33333	3.096226
31.35	3.105113
31.36667	3.112242
31.38333	3.114878
31.4	3.110679
31.41667	3.100425
31.43333	3.088511
31.45	3.082164
31.46667	3.085582
31.48333	3.087828
31.5	3.081187
31.51667	3.065953
31.53333	3.047984
31.55	3.030699
31.56667	3.017027
31.58333	3.006382
31.6	2.99564
31.61667	2.986851
31.63333	2.980211
31.65	2.9765
31.66667	2.971226
31.68333	2.962144
31.7	2.95355
31.71667	2.952574
31.73333	2.955406
31.75	2.955308
31.76667	2.952769
31.78333	2.947398
31.8	2.93939
31.81667	2.932847
31.83333	2.929625
31.85	2.926793
31.86667	2.925621
31.88333	2.932261
31.9	2.945152
31.91667	2.957359
31.93333	2.965171
31.95	2.972984
31.96667	2.99066
31.98333	3.026109
32	3.080015
32.01667	3.154429
32.03333	3.262046
32.05	3.422398
32.06667	3.652086
32.08333	3.961949
32.1	4.360191
32.11667	4.857067
32.13333	5.464684
32.15	6.193786
32.16667	7.046227
32.18333	8.012341
32.2	9.068102
32.21667	10.17884
32.23333	11.30355
32.25	12.40384
32.26667	13.44242
32.28333	14.37386
32.3	15.14828
32.31667	15.73353
32.33333	16.11996
32.35	16.30013
32.36667	16.25951
32.38333	15.99779
32.4	15.55462
32.41667	14.98041
32.43333	14.30668
32.45	13.55287
32.46667	12.75336
32.48333	11.94545
32.5	11.15648
32.51667	10.39652
32.53333	9.664977
32.55	8.966735
32.56667	8.317028
32.58333	7.729235
32.6	7.202575
32.61667	6.728063
32.63333	6.306579
32.65	5.931969
32.66667	5.592223
32.68333	5.280309
32.7	4.998082
32.71667	4.749156
32.73333	4.529234
32.75	4.334215
32.76667	4.158824
32.78333	4.004332
32.8	3.871129
32.81667	3.755504
32.83333	3.653941
32.85	3.566148
32.86667	3.492515
32.88333	3.427671
32.9	3.372984
32.91667	3.330699
32.93333	3.299937
32.95	3.274058
32.96667	3.250718
32.98333	3.233433
33	3.222105
33.01667	3.214
33.03333	3.210289
33.05	3.208043
33.06667	3.200523
33.08333	3.185484
33.1	3.169761
33.11667	3.165171
33.13333	3.173375
33.15	3.179039
33.16667	3.170835
33.18333	3.154234
33.2	3.145054
33.21667	3.144957
33.23333	3.144761
33.25	3.14105
33.26667	3.137339
33.28333	3.13275
33.3	3.122007
33.31667	3.106871
33.33333	3.094566
33.35	3.088609
33.36667	3.086168
33.38333	3.08314
33.4	3.079722
33.41667	3.079136
33.43333	3.083726
33.45	3.090757
33.46667	3.093687
33.48333	3.09398
33.5	3.100523
33.51667	3.11566
33.53333	3.131187
33.55	3.139292
33.56667	3.143687
33.58333	3.150328
33.6	3.163804
33.61667	3.185386
33.63333	3.208726
33.65	3.226304
33.66667	3.236753
33.68333	3.249156
33.7	3.269078
33.71667	3.301109
33.73333	3.345445
33.75	3.388804
33.76667	3.418589
33.78333	3.437144
33.8	3.460386
33.81667	3.494273
33.83333	3.53148
33.85	3.566344
33.86667	3.597398
33.88333	3.62152
33.9	3.63773
33.91667	3.653551
33.93333	3.674644
33.95	3.693883
33.96667	3.70316
33.98333	3.709019
34	3.714391
34.01667	3.716246
34.03333	3.713902
34.05	3.713512
34.06667	3.714879
34.08333	3.708629
34.1	3.691832
34.11667	3.669176
34.13333	3.643394
34.15	3.615855
34.16667	3.592613
34.18333	3.576402
34.2	3.561949
34.21667	3.544175
34.23333	3.530015
34.25	3.520152
34.26667	3.507164
34.28333	3.49232
34.3	3.483922
34.31667	3.482164
34.33333	3.482359
34.35	3.485191
34.36667	3.488804
34.38333	3.487339
34.4	3.483238
34.41667	3.486851
34.43333	3.498472
34.45	3.50814
34.46667	3.509019
34.48333	3.508726
34.5	3.508726
34.51667	3.505699
34.53333	3.500328
34.55	3.496617
34.56667	3.490269
34.58333	3.476109
34.6	3.455406
34.61667	3.434507
34.63333	3.416343
34.65	3.404429
34.66667	3.400328
34.68333	3.399937
34.7	3.394175
34.71667	3.377085
34.73333	3.356187
34.75	3.344175
34.76667	3.340855
34.78333	3.335582
34.8	3.326792
34.81667	3.3223
34.83333	3.323179
34.85	3.324742
34.86667	3.325621
34.88333	3.32357
34.9	3.316539
34.91667	3.311949
34.93333	3.321617
34.95	3.345054
34.96667	3.362828
34.98333	3.371519
35	3.387242
35.01667	3.426304
35.03333	3.497105
35.05	3.602477
35.06667	3.750719
35.08333	3.949254
35.1	4.202965
35.11667	4.519469
35.13333	4.912438
35.15	5.394762
35.16667	5.975719
35.18333	6.655602
35.2	7.419274
35.21667	8.240661
35.23333	9.091345
35.25	9.941442
35.26667	10.7682
35.28333	11.55316
35.3	12.27259
35.31667	12.88832
35.33333	13.35726
35.35	13.65521
35.36667	13.78363
35.38333	13.75414
35.4	13.57836
35.41667	13.26742
35.43333	12.83978
35.45	12.32054
35.46667	11.73353
35.48333	11.1059
35.5	10.47201
35.51667	9.85697
35.53333	9.264586
35.55	8.688903
35.56667	8.14115
35.58333	7.637829
35.6	7.180505
35.61667	6.767712
35.63333	6.399255
35.65	6.070934
35.66667	5.771617
35.68333	5.498668
35.7	5.256383
35.71667	5.04486
35.73333	4.855211
35.75	4.676891
35.76667	4.507262
35.78333	4.358238
35.8	4.236949
35.81667	4.139098
35.83333	4.050523
35.85	3.96898
35.86667	3.897203
35.88333	3.836168
35.9	3.783336
35.91667	3.738414
35.93333	3.701109
35.95	3.668883
35.96667	3.639293
35.98333	3.61107
36	3.587144
36.01667	3.567613
36.03333	3.555015
36.05	3.545933
36.06667	3.534214
36.08333	3.51732
36.1	3.496031
36.11667	3.480308
36.13333	3.474644
36.15	3.474546
36.16667	3.474351
36.18333	3.472789
36.2	3.472007
36.21667	3.472007
36.23333	3.472691
36.25	3.474058
36.26667	3.476207
36.28333	3.4765
36.3	3.475523
36.31667	3.480113
36.33333	3.499547
36.35	3.527964
36.36667	3.550425
36.38333	3.556187
36.4	3.553746
36.41667	3.561265
36.43333	3.586559
36.45	3.619762
36.46667	3.648473
36.48333	3.675719
36.5	3.704234
36.51667	3.734117
36.53333	3.762437
36.55	3.795933
36.56667	3.836852
36.58333	3.878453
36.6	3.914684
36.61667	3.943004
36.63333	3.963414
36.65	3.976793
36.66667	3.98734
36.68333	4.001012
36.7	4.018394
36.71667	4.040074
36.73333	4.063316
36.75	4.078063
36.76667	4.08109
36.78333	4.07943
36.8	4.078063
36.81667	4.072105
36.83333	4.058824
36.85	4.040074
36.86667	4.021129
36.88333	3.999156
36.9	3.976305
36.91667	3.960094
36.93333	3.951695
36.95	3.943297
36.96667	3.926695
36.98333	3.905699
37	3.891637
37.01667	3.884312
37.03333	3.876207
37.05	3.863512
37.06667	3.854137
37.08333	3.853746
37.1	3.855992
37.11667	3.851695
37.13333	3.841148
37.15	3.830699
37.16667	3.825426
37.18333	3.820934
37.2	3.811363
37.21667	3.798863
37.23333	3.793395
37.25	3.797008
37.26667	3.799547
37.28333	3.792516
37.3	3.778258
37.31667	3.763512
37.33333	3.749645
37.35	3.738219
37.36667	3.728648
37.38333	3.716148
37.4	3.697984
37.41667	3.681187
37.43333	3.669273
37.45	3.660582
37.46667	3.652867
37.48333	3.647398
37.5	3.650328
37.51667	3.658141
37.53333	3.662047
37.55	3.658824
37.56667	3.650328
37.58333	3.643981
37.6	3.647789
37.61667	3.666832
37.63333	3.695348
37.65	3.735094
37.66667	3.795055
37.68333	3.878844
37.7	3.984508
37.71667	4.119273
37.73333	4.299156
37.75	4.535973
37.76667	4.83275
37.78333	5.194371
37.8	5.627379
37.81667	6.132067
37.83333	6.697009
37.85	7.308434
37.86667	7.950719
37.88333	8.604333
37.9	9.251696
37.91667	9.876989
37.93333	10.45033
37.95	10.9347
37.96667	11.31322
37.98333	11.59164
38	11.76761
38.01667	11.82904
38.03333	11.76644
38.05	11.58422
38.06667	11.30062
38.08333	10.94144
38.1	10.5267
38.11667	10.07142
38.13333	9.591735
38.15	9.106579
38.16667	8.629137
38.18333	8.167126
38.2	7.729626
38.21667	7.322497
38.23333	6.945153
38.25	6.599157
38.26667	6.284801
38.28333	6.0015
38.3	5.74359
38.31667	5.506676
38.33333	5.291539
38.35	5.101696
38.36667	4.938415
38.38333	4.798082
38.4	4.673863
38.41667	4.558532
38.43333	4.447984
38.45	4.346324
38.46667	4.261754
38.48333	4.196324
38.5	4.141246
38.51667	4.086461
38.53333	4.031188
38.55	3.980895
38.56667	3.939976
38.58333	3.909312
38.6	3.882848
38.61667	3.85609
38.63333	3.831871
38.65	3.817516
38.66667	3.813414
38.68333	3.813121
38.7	3.808824
38.71667	3.798473
38.73333	3.787828
38.75	3.788219
38.76667	3.800231
38.78333	3.813805
38.8	3.823961
38.81667	3.834215
38.83333	3.846715
38.85	3.861754
38.86667	3.881187
38.88333	3.902086
38.9	3.925426
38.91667	3.951988
38.93333	3.980797
38.95	4.005113
38.96667	4.023863
38.98333	4.048766
39	4.086363
39.01667	4.12484
39.03333	4.149742
39.05	4.16693
39.06667	4.192027
39.08333	4.231481
39.1	4.274547
39.11667	4.314781
39.13333	4.34984
39.15	4.374938
39.16667	4.391539
39.18333	4.410973
39.2	4.437926
39.21667	4.463707
39.23333	4.481481
39.25	4.494078
39.26667	4.504918
39.28333	4.509898
39.3	4.512437
39.31667	4.515269
39.33333	4.517516
39.35	4.516832
39.36667	4.522691
39.38333	4.542027
39.4	4.565953
39.41667	4.581676
39.43333	4.585094
39.45	4.586852
39.46667	4.598473
39.48333	4.622789
39.5	4.651598
39.51667	4.67318
39.53333	4.680797
39.55	4.682946
39.56667	4.691833
39.58333	4.706774
39.6	4.721032
39.61667	4.736266
39.63333	4.764586
39.65	4.803746
39.66667	4.839782
39.68333	4.865856
39.7	4.897399
39.71667	4.958922
39.73333	5.078551
39.75	5.294372
39.76667	5.667223
39.78333	6.288024
39.8	7.250426
39.81667	8.606774
39.83333	10.33011
39.85	12.29779
39.86667	14.28998
39.88333	16.01693
39.9	17.20267
39.91667	17.68285
39.93333	17.44769
39.95	16.61254
39.96667	15.36878
39.98333	13.93197
40	12.48715
40.01667	11.15716
40.03333	9.996911
40.05	9.025036
40.06667	8.246032
40.08333	7.659509
40.1	7.252868
40.11667	7.005993
40.13333	6.904138
40.15	6.93568
40.16667	7.071325
40.18333	7.254138
40.2	7.430114
40.21667	7.57152
40.23333	7.669958
40.25	7.71654
40.26667	7.700329
40.28333	7.622399
40.3	7.50443
40.31667	7.386559
40.33333	7.326989
40.35	7.427966
40.36667	7.867419
40.38333	8.886071
40.4	10.65756
40.41667	13.09418
40.43333	15.74359
40.45	17.92416
40.46667	19.05316
40.48333	18.93744
40.5	17.81654
40.51667	16.17367
40.53333	14.47406
40.55	13.00521
40.56667	11.86742
40.58333	11.04076
40.6	10.45716
40.61667	10.05267
40.63333	9.828259
40.65	9.900133
40.66667	10.47103
40.68333	11.69447
40.7	13.4931
40.71667	15.49183
40.73333	17.14193
40.75	17.99261
40.76667	17.9016
40.78333	17.05775
40.8	15.83177
40.81667	14.60629
40.83333	13.70521
40.85	13.37963
40.86667	13.7474
40.88333	14.69418
40.9	15.85931
40.91667	16.7973
40.93333	17.21537
40.95	17.11781
40.96667	16.77318
40.98333	16.53216
41	16.60257
41.01667	16.95101
41.03333	17.38626
41.05	17.74535
41.06667	17.99466
41.08333	18.20277
41.1	18.4389
41.11667	18.7142
41.13333	19.00394
41.15	19.29691
41.16667	19.60677
41.18333	19.94711
41.2	20.31713
41.21667	20.7057
41.23333	21.10238
41.25	21.49828
41.26667	21.87601
41.28333	22.19007
41.3	22.34994
41.31667	22.22474
41.33333	21.6682
41.35	20.58636
41.36667	19.01703
41.38333	17.13382
41.4	15.17181
41.41667	13.34496
41.43333	11.80258
41.45	10.61127
41.46667	9.752966
41.48333	9.159801
41.5	8.760485
41.51667	8.496325
41.53333	8.323083
41.55	8.21068
41.56667	8.140954
41.58333	8.10404
41.6	8.084313
41.61667	8.070251
41.63333	8.061461
41.65	8.059704
41.66667	8.063806
41.68333	8.065172
41.7	8.058043
41.71667	8.050134
41.73333	8.057165
41.75	8.077966
41.76667	8.093981
41.78333	8.096228
41.8	8.099352
41.81667	8.115953
41.83333	8.138122
41.85	8.150133
41.86667	8.155602
41.88333	8.165173
41.9	8.178844
41.91667	8.184899
41.93333	8.182262
41.95	8.181579
41.96667	8.192712
41.98333	8.211755
42	8.230407
42.01667	8.245836
42.03333	8.254821
42.05	8.252379
42.06667	8.247107
42.08333	8.254235
42.1	8.268688
42.11667	8.27943
42.13333	8.288219
42.15	8.302965
42.16667	8.318005
42.18333	8.326403
42.2	8.330504
42.21667	8.338121
42.23333	8.345544
42.25	8.34984
42.26667	8.353746
42.28333	8.36029
42.3	8.364294
42.31667	8.360582
42.33333	8.351501
42.35	8.348864
42.36667	8.358044
42.38333	8.368689
42.4	8.370642
42.41667	8.369665
42.43333	8.378259
42.45	8.388805
42.46667	8.389294
42.48333	8.385778
42.5	8.39486
42.51667	8.417614
42.53333	8.437145
42.55	8.443981
42.56667	8.441735
42.58333	8.436169
42.6	8.432262
42.61667	8.4307
42.63333	8.432165
42.65	8.43656
42.66667	8.442809
42.68333	8.443688
42.7	8.432946
42.71667	8.418883
42.73333	8.418102
42.75	8.434411
42.76667	8.451403
42.78333	8.453747
42.8	8.442028
42.81667	8.425622
42.83333	8.409216
42.85	8.391735
42.86667	8.369274
42.88333	8.346228
42.9	8.326891
42.91667	8.308142
42.93333	8.284118
42.95	8.260387
42.96667	8.251989
42.98333	8.267516
43	8.302282
43.01667	8.341539
43.03333	8.377087
43.05	8.411169
43.06667	8.444762
43.08333	8.468786
43.1	8.476989
43.11667	8.475134
43.13333	8.468298
43.15	8.449059
43.16667	8.407457
43.18333	8.329821
43.2	8.206091
43.21667	8.036755
43.23333	7.839782
43.25	7.62904
43.26667	7.40111
43.28333	7.151208
43.3	6.891442
43.31667	6.639782
43.33333	6.404333
43.35	6.186461
43.36667	5.982457
43.38333	5.786364
43.4	5.596618
43.41667	5.417907
43.43333	5.24945
43.45	5.086852
43.46667	4.928453
43.48333	4.777184
43.5	4.636266
43.51667	4.508336
43.53333	4.391539
43.55	4.279332
43.56667	4.165563
43.58333	4.045152
43.6	3.916148
43.61667	3.78441
43.63333	3.661851
43.65	3.554332
43.66667	3.452574
43.68333	3.35316
43.7	3.259507
43.71667	3.171324
43.73333	3.078062
43.75	2.974839
43.76667	2.868492
43.78333	2.769957
43.8	2.681968
43.81667	2.602671
43.83333	2.52523
43.85	2.444566
43.86667	2.361851
43.88333	2.28314
43.9	2.214488
43.91667	2.155015
43.93333	2.094664
43.95	2.03148
43.96667	1.969859
43.98333	1.91107
44	1.849839
44.01667	1.779625
44.03333	1.703941
44.05	1.630015
44.06667	1.566734
44.08333	1.519175
44.1	1.481187
44.11667	1.44066
44.13333	1.396128
44.15	1.356285
44.16667	1.322789
44.18333	1.28773
44.2	1.250328
44.21667	1.21439
44.23333	1.180406
44.25	1.145445
44.26667	1.112925
44.28333	1.085875
44.3	1.058238
44.31667	1.025035
44.33333	0.9901714
44.35	0.9628277
44.36667	0.946812
44.38333	0.9367535
44.4	0.922691
44.41667	0.9009136
44.43333	0.8772808
44.45	0.8565777
44.46667	0.8370464
44.48333	0.8113629
44.5	0.7811871
44.51667	0.756773
44.53333	0.7420269
44.55	0.73148
44.56667	0.7183941
44.58333	0.7018902
44.6	0.6888043
44.61667	0.6780621
44.63333	0.663023
44.65	0.6418316
44.66667	0.6168316
44.68333	0.5932964
44.7	0.5701519
44.71667	0.547691
44.73333	0.5238628
44.75	0.4991558
44.76667	0.4743511
44.78333	0.4501324
44.8	0.4268902
44.81667	0.4049175
44.83333	0.3870464
44.85	0.3697613
44.86667	0.3521832
44.88333	0.3347027
44.9	0.3168316
44.91667	0.2950543
44.93333	0.2696636
44.95	0.2490582
44.96667	0.2393902
44.98333	0.2357769
45	0.2265972
45.01667	0.2089214
45.03333	0.1882183
45.05	0.1694683
45.06667	0.1551128
45.08333	0.1484722
45.1	0.1482769
45.11667	0.1478863
45.13333	0.1446636
45.15	0.1398785
45.16667	0.1295269
45.18333	0.1083355
45.2	0.08304252
45.21667	0.0685894
45.23333	0.07064018
45.25	0.07698784
45.26667	0.07591362
45.28333	0.06976128
45.3	0.06439018
45.31667	0.06038628
45.33333	0.05481987
45.35	0.05023003
45.36667	0.05052299
45.38333	0.05276909
45.4	0.04993706
45.41667	0.03685112
45.43333	0.0201519
45.45	0.01155815
45.46667	0.01448784
45.48333	0.0185894
45.5	0.0154644
45.51667	0.00638237
45.53333	-0.005043411
45.55	-0.01490669
45.56667	-0.02027779
45.58333	-0.01959419
45.6	-0.01783638
45.61667	-0.01793404
45.63333	-0.01930122
45.65	-0.02232857
45.66667	-0.02682075
45.68333	-0.03170357
45.7	-0.03404732
45.71667	-0.03062935
45.73333	-0.02603951
45.75	-0.02877388
45.76667	-0.0416645
45.78333	-0.05435982
45.8	-0.05865669
45.81667	-0.06002388
45.83333	-0.06490669
45.85	-0.07144966
45.86667	-0.07242622
45.88333	-0.06812935
45.9	-0.06705513
45.91667	-0.07262154
45.93333	-0.08316841
45.95	-0.09420357
45.96667	-0.1001606
45.98333	-0.09684028
46	-0.08736763
46.01667	-0.07848091
46.03333	-0.07652779
46.05	-0.08033638
46.06667	-0.08424263
46.08333	-0.07955513
46.1	-0.07262154
46.11667	-0.07164498
46.13333	-0.07779732
46.15	-0.0860981
46.16667	-0.09351997
46.18333	-0.1010395
46.2	-0.1066059
46.21667	-0.1086567
46.23333	-0.1080708
46.25	-0.1027973
46.26667	-0.09508248
46.28333	-0.0945942
46.3	-0.1015278
46.31667	-0.102602
46.33333	-0.09215279
46.35	-0.08199654
46.36667	-0.08209419
46.38333	-0.08980904
46.4	-0.1016254
46.41667	-0.1159809
46.43333	-0.1248676
46.45	-0.1232075
46.46667	-0.121059
46.48333	-0.1191059
46.5	-0.1107075
46.51667	-0.09674263
46.53333	-0.08834419
46.55	-0.090102
46.56667	-0.09254341
46.58333	-0.08873482
46.6	-0.08590279
46.61667	-0.09283638
46.63333	-0.1078754
46.65	-0.1206684
46.66667	-0.1266254
46.68333	-0.1221333
46.7	-0.1166645
46.71667	-0.1126606
46.73333	-0.1086567
46.75	-0.1014301
46.76667	-0.09176216
46.78333	-0.08639107
46.8	-0.09029732
46.81667	-0.1020161
46.83333	-0.1139301
46.85	-0.1214497
46.86667	-0.1258442
46.88333	-0.1234028
46.9	-0.1158833
46.91667	-0.1109028
46.93333	-0.1126606
46.95	-0.1171528
46.96667	-0.11852
46.98333	-0.1141254
47	-0.1077778
47.01667	-0.1056293
47.03333	-0.1094379
47.05	-0.1137348
47.06667	-0.1134418
47.08333	-0.1130512
47.1	-0.1180317
47.11667	-0.1256489
47.13333	-0.1274067
47.15	-0.121059
47.16667	-0.1163715
47.18333	-0.1200825
47.2	-0.1309223
47.21667	-0.1390278
47.23333	-0.142934
47.25	-0.1415668
47.26667	-0.1343403
47.28333	-0.124184
47.3	-0.121059
47.31667	-0.1295551
47.33333	-0.1355122
47.35	-0.1328754
47.36667	-0.1249653
47.38333	-0.1215473
47.4	-0.1270161
47.41667	-0.1311176
47.43333	-0.1249653
47.45	-0.1124653
47.46667	-0.108559
47.48333	-0.1173481
47.5	-0.1279926
47.51667	-0.130727
47.53333	-0.1299458
47.55	-0.1319965
47.56667	-0.1374653
47.58333	-0.1419575
47.6	-0.1436176
47.61667	-0.142934
47.63333	-0.1410786
47.65	-0.1407856
47.66667	-0.1402973
47.68333	-0.1388325
47.7	-0.1380512
47.71667	-0.1392231
47.73333	-0.1406879
47.75	-0.1399067
47.76667	-0.1374653
47.78333	-0.1389301
47.8	-0.1480122
47.81667	-0.1606098
47.83333	-0.16852
47.85	-0.1664692
47.86667	-0.1604145
47.88333	-0.1534809
47.9	-0.146059
47.91667	-0.1390278
47.93333	-0.1333637
47.95	-0.1314106
47.96667	-0.1360981
47.98333	-0.1443989
48	-0.149477
48.01667	-0.14977
48.03333	-0.1476215
48.05	-0.1443012
48.06667	-0.140102
48.08333	-0.1390278
48.1	-0.143227
48.11667	-0.1470356
48.13333	-0.1464497
48.15	-0.1440082
48.16667	-0.1427387
48.18333	-0.1404926
48.2	-0.1340473
48.21667	-0.1235004
48.23333	-0.1138325
48.25	-0.1096333
48.26667	-0.1094379
48.28333	-0.1077778
48.3	-0.1048481
48.31667	-0.1051411
48.33333	-0.1107075
48.35	-0.1158833
48.36667	-0.1167622
48.38333	-0.1154926
48.4	-0.1190083
48.41667	-0.1279926
48.43333	-0.1322895
48.45	-0.1276997
48.46667	-0.1197895
48.48333	-0.1174458
48.5	-0.1212543
48.51667	-0.1282856
48.53333	-0.1349262
48.55	-0.1378559
48.56667	-0.1305317
48.58333	-0.1096333
48.6	-0.090102
48.61667	-0.08521919
48.63333	-0.09478951
48.65	-0.1092426
48.66667	-0.121059
48.68333	-0.127895
48.7	-0.1286762
48.71667	-0.1260395
48.73333	-0.1198872
48.75	-0.1127583
48.76667	-0.1110004
48.78333	-0.1155903
48.8	-0.1169575
48.81667	-0.1081684
48.83333	-0.09781685
48.85	-0.09732857
48.86667	-0.1066059
48.88333	-0.1127583
48.9	-0.1064106
48.91667	-0.08932076
48.93333	-0.07105903
48.95	-0.06393013
48.96667	-0.06920357
48.98333	-0.08131294
49	-0.09439888
49.01667	-0.1049458
49.03333	-0.1103169
49.05	-0.1105122
49.06667	-0.1104145
49.08333	-0.109145
49.1	-0.1049458
49.11667	-0.09947701
49.13333	-0.09918404
49.15	-0.1045551
49.16667	-0.1127583
49.18333	-0.1198872
49.2	-0.1236958
49.21667	-0.1246723
49.23333	-0.1228168
49.25	-0.1160786
49.26667	-0.1004536
49.28333	-0.08375435
49.3	-0.07779732
49.31667	-0.08258247
49.33333	-0.08512153
49.35	-0.0789692
49.36667	-0.07545356
49.38333	-0.08287545
49.4	-0.09937935
49.41667	-0.1143208
49.43333	-0.1175434
49.45	-0.1095356
49.46667	-0.1017231
49.48333	-0.1031879
49.5	-0.1097309
49.51667	-0.114809
49.53333	-0.1162739
49.55	-0.1137348
49.56667	-0.1066059
49.58333	-0.1007465
49.6	-0.1046528
49.61667	-0.1166645
49.63333	-0.1253559
49.65	-0.1251606
49.66667	-0.1233051
49.68333	-0.1249653
49.7	-0.1239887
49.71667	-0.1184223
49.73333	-0.1099262
49.75	-0.1039692
49.76667	-0.1024067
49.78333	-0.102602
49.8	-0.1001606
49.81667	-0.09449653
49.83333	-0.09195747
49.85	-0.09654732
49.86667	-0.1055317
49.88333	-0.1176411
49.9	-0.1318012
49.91667	-0.1374653
49.93333	-0.1298481
49.95	-0.1164692
49.96667	-0.1084614
49.98333	-0.1016254
50	-0.08971138
50.01667	-0.07662544
50.03333	-0.07496528
50.05	-0.08629341
50.06667	-0.1025044
50.08333	-0.111684
50.1	-0.1092426
50.11667	-0.1017231
50.13333	-0.09928169
50.15	-0.1025044
50.16667	-0.1053364
50.18333	-0.1038715
50.2	-0.1001606
50.21667	-0.09713326
50.23333	-0.09693794
50.25	-0.1031879
50.26667	-0.1133442
50.28333	-0.1202778
50.3	-0.1187153
50.31667	-0.1103169
50.33333	-0.1047504
50.35	-0.1090473
50.36667	-0.1186176
50.38333	-0.1249653
50.4	-0.1206684
50.41667	-0.1127583
50.43333	-0.1059223
50.45	-0.102309
50.46667	-0.102895
50.48333	-0.105434
50.5	-0.1076801
50.51667	-0.1090473
50.53333	-0.1068989
50.55	-0.09625435
50.56667	-0.08023872
50.58333	-0.07476997
50.6	-0.08521919
50.61667	-0.09537544
50.63333	-0.09254341
50.65	-0.08160591
50.66667	-0.07574654
50.68333	-0.07994576
50.7	-0.09195747
50.71667	-0.1071918
50.73333	-0.1180317
50.75	-0.1157856
50.76667	-0.102602
50.78333	-0.09137154
50.8	-0.09146919
50.81667	-0.0985981
50.83333	-0.1045551
50.85	-0.1046528
50.86667	-0.09996529
50.88333	-0.09527779
50.9	-0.09488716
50.91667	-0.09498481
50.93333	-0.08893013
50.95	-0.07994576
50.96667	-0.0782856
50.98333	-0.08795357
51	-0.1001606
51.01667	-0.105434
51.03333	-0.1037739
51.05	-0.1029926
51.06667	-0.1068989
51.08333	-0.1117817
51.1	-0.1151997
51.11667	-0.1172504
51.13333	-0.1163715
51.15	-0.1115864
51.16667	-0.1058247
51.18333	-0.1017231
51.2	-0.09928169
51.21667	-0.09557076
51.23333	-0.090102
51.25	-0.08590279
51.26667	-0.08795357
51.28333	-0.09644966
51.3	-0.1020161
51.31667	-0.09693794
51.33333	-0.08531685
51.35	-0.07838325
51.36667	-0.08160591
51.38333	-0.08775826
51.4	-0.09088326
51.41667	-0.09088326
51.43333	-0.09000435
51.45	-0.08990669
51.46667	-0.08990669
51.48333	-0.08990669
51.5	-0.09029732
51.51667	-0.09303169
51.53333	-0.09762154
51.55	-0.1003559
51.56667	-0.09742622
51.58333	-0.09156685
51.6	-0.08883248
51.61667	-0.08912544
51.63333	-0.09000435
51.65	-0.09293403
51.66667	-0.09879341
51.68333	-0.1011372
51.7	-0.09644966
51.71667	-0.09439888
51.73333	-0.1020161
51.75	-0.1124653
51.76667	-0.1097309
51.78333	-0.09400825
51.8	-0.07809029
51.81667	-0.07223091
51.83333	-0.07467232
51.85	-0.08316841
51.86667	-0.09713326
51.88333	-0.1110004
51.9	-0.1154926
51.91667	-0.1104145
51.93333	-0.105727
51.95	-0.1099262
51.96667	-0.1157856
51.98333	-0.1137348
52	-0.1075825
52.01667	-0.105727
52.03333	-0.1084614
52.05	-0.1125629
52.06667	-0.1186176
52.08333	-0.1226215
52.1	-0.1193012
52.11667	-0.1112934
52.13333	-0.1053364
52.15	-0.1041645
52.16667	-0.1049458
52.18333	-0.1083637
52.2	-0.1135395
52.21667	-0.1178364
52.23333	-0.1168598
52.25	-0.1120747
52.26667	-0.1089497
52.28333	-0.1109028
52.3	-0.1124653
52.31667	-0.1082661
52.33333	-0.102895
52.35	-0.105727
52.36667	-0.1164692
52.38333	-0.1274067
52.4	-0.1329731
52.41667	-0.1349262
52.43333	-0.133852
52.45	-0.1275043
52.46667	-0.1193012
52.48333	-0.1150043
52.5	-0.1140278
52.51667	-0.1111958
52.53333	-0.1086567
52.55	-0.1111958
52.56667	-0.1171528
52.58333	-0.1207661
52.6	-0.1208637
52.61667	-0.1201801
52.63333	-0.1196918
52.65	-0.1159809
52.66667	-0.1104145
52.68333	-0.1068989
52.7	-0.1069965
52.71667	-0.108559
52.73333	-0.1096333
52.75	-0.1102192
52.76667	-0.1086567
52.78333	-0.1051411
52.8	-0.1039692
52.81667	-0.1080708
52.83333	-0.114809
52.85	-0.1184223
52.86667	-0.1180317
52.88333	-0.1155903
52.9	-0.1154926
52.91667	-0.1191059
52.93333	-0.1284809
52.95	-0.1400044
52.96667	-0.1459614
52.98333	-0.1440082
53	-0.1406879
53.01667	-0.1420551
53.03333	-0.1445942
53.05	-0.1393208
53.06667	-0.1233051
53.08333	-0.1115864
53.1	-0.1186176
53.11667	-0.1391254
53.13333	-0.1540668
53.15	-0.1561176
53.16667	-0.149184
53.18333	-0.1360004
53.2	-0.1199848
53.21667	-0.1105122
53.23333	-0.1094379
53.25	-0.1102192
53.26667	-0.1103169
53.28333	-0.1151997
53.3	-0.1226215
53.31667	-0.1265278
53.33333	-0.1229145
53.35	-0.11852
53.36667	-0.1145161
53.38333	-0.1078754
53.4	-0.1002583
53.41667	-0.0970356
53.43333	-0.09879341
53.45	-0.1011372
53.46667	-0.1024067
53.48333	-0.1038715
53.5	-0.1034809
53.51667	-0.09889106
53.53333	-0.09351997
53.55	-0.09303169
53.56667	-0.09449653
53.58333	-0.09029732
53.6	-0.07584419
53.61667	-0.06090279
53.63333	-0.05494576
53.65	-0.05670357
53.66667	-0.05611763
53.68333	-0.05103951
53.7	-0.05103951
53.71667	-0.06129341
53.73333	-0.07838325
53.75	-0.09361763
53.76667	-0.1033833
53.78333	-0.1106098
53.8	-0.1157856
53.81667	-0.1166645
53.83333	-0.1123676
53.85	-0.1090473
53.86667	-0.1121723
53.88333	-0.1215473
53.9	-0.1280903
53.91667	-0.1211567
53.93333	-0.1066059
53.95	-0.09957466
53.96667	-0.1089497
53.98333	-0.1252583
54	-0.1332661
54.01667	-0.1333637
54.03333	-0.1322895
54.05	-0.1318012
54.06667	-0.1309223
54.08333	-0.1320942
54.1	-0.1382465
54.11667	-0.1456684
54.13333	-0.1455708
54.15	-0.1371723
54.16667	-0.1302387
54.18333	-0.1313129
54.2	-0.1346333
54.21667	-0.1333637
54.23333	-0.1283832
54.25	-0.1239887
54.26667	-0.1212543
54.28333	-0.1189106
54.3	-0.1132465
54.31667	-0.1032856
54.33333	-0.09586372
54.35	-0.09928169
54.36667	-0.1077778
54.38333	-0.1068012
54.4	-0.09810982
54.41667	-0.09820747
54.43333	-0.1117817
54.45	-0.1242817
54.46667	-0.1221333
54.48333	-0.1097309
54.5	-0.09957466
54.51667	-0.1002583
54.53333	-0.1103169
54.55	-0.1202778
54.56667	-0.1272114
54.58333	-0.1308247
54.6	-0.133852
54.61667	-0.134145
54.63333	-0.1269184
54.65	-0.1136372
54.66667	-0.1046528
54.68333	-0.105434
54.7	-0.108559
54.71667	-0.1061176
54.73333	-0.1032856
54.75	-0.1095356
54.76667	-0.1235981
54.78333	-0.1357075
54.8	-0.1422504
54.81667	-0.1457661
54.83333	-0.1452778
54.85	-0.1414692
54.86667	-0.1365864
54.88333	-0.1320942
54.9	-0.127602
54.91667	-0.1260395
54.93333	-0.1276997
54.95	-0.1318012
54.96667	-0.1385395
54.98333	-0.1479145
55	-0.1540668
