"SampleName"	"4. PC-12 wt"
"System Name"	"Alliance 2"
"Sample Set Name"	"DTtV_15052025 GSL new HPLC"
"Date Acquired"	"5/15/2025 5:33:19 PM BST"
"Sample Set Start Date"	"5/15/2025 2:04:31 PM BST"
0	0.0002563476
0.01666667	0.0004295349
0.03333333	0.0001396179
0.05	0.001799774
0.06666667	0.005803681
0.08333333	0.01498337
0.1	0.02523727
0.1166667	0.03373337
0.1333333	0.03578415
0.15	0.03226852
0.1666667	0.03041306
0.1833333	0.03637009
0.2	0.05199509
0.2166667	0.06830368
0.2333333	0.07650681
0.25	0.07474899
0.2666667	0.06664352
0.2833333	0.05765915
0.3	0.05004196
0.3166667	0.04574509
0.3333333	0.04086227
0.35	0.03724899
0.3666667	0.03959274
0.3833333	0.04574509
0.4	0.04847946
0.4166667	0.04847946
0.4333333	0.05189743
0.45	0.05717087
0.4666667	0.05297165
0.4833333	0.04174118
0.5	0.03334274
0.5166667	0.03109665
0.5333333	0.03099899
0.55	0.03002243
0.5666667	0.02836227
0.5833333	0.02679977
0.6	0.02699509
0.6166667	0.03207321
0.6333333	0.03871384
0.65	0.04008102
0.6666667	0.03285446
0.6833333	0.02650681
0.7	0.0303154
0.7166667	0.03881149
0.7333333	0.04154587
0.75	0.03549118
0.7666667	0.0240654
0.7833333	0.01185837
0.8	0.006389618
0.8166667	0.01420212
0.8333333	0.02592087
0.85	0.03226852
0.8666667	0.03168259
0.8833333	0.02601852
0.9	0.01713181
0.9166667	0.008538055
0.9333333	0.008538055
0.95	0.01097946
0.9666667	0.00736618
0.9833333	0.001702118
1	0.00345993
1.016667	0.01371384
1.033333	0.02103806
1.05	0.02006149
1.066667	0.0162529
1.083333	0.01371384
1.1	0.005608368
1.116667	-0.01314163
1.133333	-0.03736038
1.15	-0.05122757
1.166667	-0.0516182
1.183333	-0.04497757
1.2	-0.03755569
1.216667	-0.03277054
1.233333	-0.02876663
1.25	-0.02359085
1.266667	-0.0134346
1.283333	-0.0004463196
1.3	0.007463837
1.316667	0.005706024
1.333333	-0.001618195
1.35	-0.005915069
1.366667	-0.004938507
1.383333	-0.002106476
1.4	-0.005231476
1.416667	-0.01577835
1.433333	-0.02564163
1.45	-0.02456741
1.466667	-0.01519241
1.483333	-0.008844757
1.5	-0.008356476
1.516667	-0.01099319
1.533333	-0.01626663
1.55	-0.0250557
1.566667	-0.03501663
1.583333	-0.0368721
1.6	-0.02847366
1.616667	-0.01587601
1.633333	-0.007965851
1.65	-0.005426788
1.666667	-0.005524444
1.683333	-0.003180695
1.7	0.004924774
1.716667	0.02582321
1.733333	0.06068649
1.75	0.1054131
1.766667	0.149749
1.783333	0.187249
1.8	0.2135185
1.816667	0.2337334
1.833333	0.2507256
1.85	0.2638115
1.866667	0.2632256
1.883333	0.2449638
1.9	0.2151787
1.916667	0.1837334
1.933333	0.1580498
1.95	0.1388115
1.966667	0.1194756
1.983333	0.09955368
2	0.08295212
2.016667	0.07416306
2.033333	0.07035446
2.05	0.06771775
2.066667	0.06176071
2.083333	0.04984665
2.1	0.03763962
2.116667	0.02728806
2.133333	0.01508102
2.15	-0.003180695
2.166667	-0.02046585
2.183333	-0.03023148
2.2	-0.02818069
2.216667	-0.02378616
2.233333	-0.02857132
2.25	-0.04126663
2.266667	-0.04351272
2.283333	-0.02154007
2.3	0.01967087
2.316667	0.06049118
2.333333	0.09388962
2.35	0.131292
2.366667	0.1864677
2.383333	0.2672295
2.4	0.3723076
2.416667	0.5006279
2.433333	0.649749
2.45	0.814788
2.466667	0.9945732
2.483333	1.193499
2.5	1.415472
2.516667	1.657366
2.533333	1.910589
2.55	2.17055
2.566667	2.439397
2.583333	2.719573
2.6	3.01137
2.616667	3.316839
2.633333	3.639788
2.65	3.982269
2.666667	4.35014
2.683333	4.752483
2.7	5.204046
2.716667	5.723675
2.733333	6.326507
2.75	7.021722
2.766667	7.81264
2.783333	8.697992
2.8	9.679633
2.816667	10.75551
2.833333	11.91342
2.85	13.13208
2.866667	14.38178
2.883333	15.63208
2.9	16.84086
2.916667	17.96567
2.933333	18.97973
2.95	19.88735
2.966667	20.70737
2.983333	21.4562
3	22.14487
3.016667	22.77465
3.033333	23.33657
3.05	23.81919
3.066667	24.22221
3.083333	24.55385
3.1	24.81479
3.116667	24.99702
3.133333	25.09223
3.15	25.08559
3.166667	24.97485
3.183333	24.78627
3.2	24.56303
3.216667	24.34428
3.233333	24.16762
3.25	24.08735
3.266667	24.21
3.283333	24.77485
3.3	26.19321
3.316667	28.86567
3.333333	32.8186
3.35	37.49067
3.366667	41.94096
3.383333	45.30316
3.4	47.12152
3.416667	47.4182
3.433333	46.77816
3.45	47.13734
3.466667	53.87426
3.483333	77.87672
3.5	133.1916
3.516667	228.1181
3.533333	356.6894
3.55	500.6392
3.566667	640.54
3.583333	763.6541
3.6	862.022
3.616667	927.4152
3.633333	951.5422
3.65	931.1121
3.666667	871.697
3.683333	786.3917
3.7	690.5121
3.716667	596.4606
3.733333	511.3959
3.75	437.6667
3.766667	374.8403
3.783333	321.9002
3.8	278.4612
3.816667	244.8112
3.833333	221.5438
3.85	208.9669
3.866667	205.7108
3.883333	207.1795
3.9	206.466
3.916667	198.1496
3.933333	180.691
3.95	155.4449
3.966667	125.4409
3.983333	95.37086
4	70.16021
4.016667	52.13392
4.033333	40.41928
4.05	32.95258
4.066667	28.05414
4.083333	24.62368
4.1	21.98471
4.116667	19.8061
4.133333	17.99272
4.15	16.52729
4.166667	15.37905
4.183333	14.49223
4.2	13.80922
4.216667	13.27768
4.233333	12.85346
4.25	12.50229
4.266667	12.19887
4.283333	11.9268
4.3	11.68461
4.316667	11.49477
4.333333	11.39243
4.35	11.39829
4.366667	11.50434
4.383333	11.68969
4.4	11.92407
4.416667	12.16088
4.433333	12.34106
4.45	12.40776
4.466667	12.31684
4.483333	12.04897
4.5	11.62319
4.516667	11.09204
4.533333	10.51157
4.55	9.916645
4.566667	9.326509
4.583333	8.752874
4.6	8.205805
4.616667	7.695258
4.633333	7.237738
4.65	6.85219
4.666667	6.559417
4.683333	6.385686
4.7	6.342913
4.716667	6.408147
4.733333	6.518499
4.75	6.606585
4.766667	6.63305
4.783333	6.595159
4.8	6.51303
4.816667	6.416448
4.833333	6.330706
4.85	6.258929
4.866667	6.182855
4.883333	6.089983
4.9	6.001995
4.916667	5.955608
4.933333	5.972796
4.95	6.047307
4.966667	6.161956
4.983333	6.289788
5	6.394671
5.016667	6.447405
5.033333	6.436565
5.05	6.367034
5.066667	6.262151
5.083333	6.161468
5.1	6.101214
5.116667	6.087444
5.133333	6.09721
5.15	6.097991
5.166667	6.060687
5.183333	5.965374
5.2	5.810003
5.216667	5.605706
5.233333	5.373968
5.25	5.134124
5.266667	4.903753
5.283333	4.689788
5.3	4.493206
5.316667	4.310393
5.333333	4.133147
5.35	3.961272
5.366667	3.805999
5.383333	3.682561
5.4	3.601214
5.416667	3.568108
5.433333	3.584026
5.45	3.639007
5.466667	3.708733
5.483333	3.764886
5.5	3.789983
5.516667	3.782171
5.533333	3.750042
5.55	3.707952
5.566667	3.679046
5.583333	3.695745
5.6	3.779144
5.616667	3.92514
5.633333	4.102972
5.65	4.26596
5.666667	4.373284
5.683333	4.409222
5.7	4.39555
5.716667	4.37514
5.733333	4.389593
5.75	4.458636
5.766667	4.583538
5.783333	4.751605
5.8	4.937054
5.816667	5.102386
5.833333	5.218011
5.85	5.274456
5.866667	5.272015
5.883333	5.222698
5.9	5.14428
5.916667	5.042327
5.933333	4.910979
5.95	4.754632
5.966667	4.582561
5.983333	4.391741
6	4.176507
6.016667	3.948284
6.033333	3.725628
6.05	3.516546
6.066667	3.319378
6.083333	3.13969
6.1	2.991546
6.116667	2.879827
6.133333	2.793304
6.15	2.723382
6.166667	2.671917
6.183333	2.633929
6.2	2.597991
6.216667	2.559222
6.233333	2.516351
6.25	2.464397
6.266667	2.402581
6.283333	2.340472
6.3	2.286468
6.316667	2.239007
6.333333	2.193694
6.35	2.151116
6.366667	2.110784
6.383333	2.071917
6.4	2.032269
6.416667	1.99262
6.433333	1.956878
6.45	1.932171
6.466667	1.927386
6.483333	1.940179
6.5	1.958147
6.516667	1.978753
6.533333	1.999749
6.55	2.021526
6.566667	2.037933
6.583333	2.047405
6.6	2.042034
6.616667	2.020745
6.633333	1.995062
6.65	1.972991
6.666667	1.943499
6.683333	1.891839
6.7	1.824456
6.716667	1.759905
6.733333	1.705413
6.75	1.65678
6.766667	1.610198
6.783333	1.569085
6.8	1.533733
6.816667	1.504436
6.833333	1.48637
6.85	1.484222
6.866667	1.498382
6.883333	1.524651
6.9	1.564886
6.916667	1.623968
6.933333	1.699456
6.95	1.777288
6.966667	1.837933
6.983333	1.872308
7	1.883245
7.016667	1.87846
7.033333	1.861858
7.05	1.832268
7.066667	1.791058
7.083333	1.745647
7.1	1.704827
7.116667	1.669964
7.133333	1.639202
7.15	1.612835
7.166667	1.58803
7.183333	1.564202
7.2	1.544671
7.216667	1.534319
7.233333	1.52387
7.25	1.504534
7.266667	1.485003
7.283333	1.474847
7.3	1.472796
7.316667	1.473284
7.333333	1.48178
7.35	1.511468
7.366667	1.567425
7.383333	1.641839
7.4	1.72846
7.416667	1.824944
7.433333	1.918206
7.45	1.986858
7.466667	2.016351
7.483333	2.004925
7.5	1.963519
7.516667	1.899456
7.533333	1.816351
7.55	1.717718
7.566667	1.613811
7.583333	1.516155
7.6	1.432854
7.616667	1.366839
7.633333	1.313323
7.65	1.268401
7.666667	1.228948
7.683333	1.195257
7.7	1.164593
7.716667	1.138616
7.733333	1.12094
7.75	1.115472
7.766667	1.118694
7.783333	1.128265
7.8	1.140472
7.816667	1.149847
7.833333	1.155608
7.85	1.162542
7.866667	1.174261
7.883333	1.185198
7.9	1.185296
7.916667	1.173675
7.933333	1.162444
7.95	1.157757
7.966667	1.160882
7.983333	1.171331
8	1.187835
8.016667	1.210589
8.033333	1.241936
8.05	1.277386
8.066667	1.310784
8.083333	1.346917
8.1	1.400237
8.116667	1.469085
8.133333	1.534515
8.15	1.587444
8.166667	1.645061
8.183333	1.728167
8.2	1.836956
8.216667	1.960198
8.233333	2.086761
8.25	2.207659
8.266667	2.316253
8.283333	2.409417
8.3	2.482171
8.316667	2.527386
8.333333	2.541644
8.35	2.522698
8.366667	2.467522
8.383333	2.376312
8.4	2.258147
8.416667	2.125921
8.433333	1.990179
8.45	1.856683
8.466667	1.728655
8.483333	1.613518
8.5	1.513323
8.516667	1.422698
8.533333	1.335784
8.55	1.254436
8.566667	1.187249
8.583333	1.137249
8.6	1.100042
8.616667	1.069866
8.633333	1.041351
8.65	1.016937
8.666667	0.9976006
8.683333	0.9794365
8.7	0.9545342
8.716667	0.9312919
8.733333	0.9243584
8.75	0.9352959
8.766667	0.9433037
8.783333	0.9401787
8.8	0.930999
8.816667	0.9249443
8.833333	0.9273857
8.85	0.9365654
8.866667	0.9485771
8.883333	0.962249
8.9	0.9808037
8.916667	1.001409
8.933333	1.023186
8.95	1.048675
8.966667	1.090374
8.983333	1.158147
9	1.252679
9.016667	1.374749
9.033333	1.530999
9.05	1.73764
9.066667	2.004241
9.083333	2.331097
9.1	2.713421
9.116667	3.134515
9.133333	3.566546
9.15	3.976995
9.166667	4.335393
9.183333	4.613616
9.2	4.78803
9.216667	4.848577
9.233333	4.797796
9.25	4.647112
9.266667	4.413226
9.283333	4.122698
9.3	3.805608
9.316667	3.486663
9.333333	3.178851
9.35	2.889886
9.366667	2.624261
9.383333	2.38139
9.4	2.156976
9.416667	1.949163
9.433333	1.760979
9.45	1.595062
9.466667	1.451897
9.483333	1.329534
9.5	1.223968
9.516667	1.130511
9.533333	1.047015
9.55	0.9776787
9.566667	0.9255303
9.583333	0.8844169
9.6	0.8473076
9.616667	0.8139092
9.633333	0.7885185
9.65	0.7711357
9.666667	0.7593193
9.683333	0.7566826
9.7	0.7649834
9.716667	0.780999
9.733333	0.7983818
9.75	0.811956
9.766667	0.8231865
9.783333	0.8430107
9.8	0.877288
9.816667	0.9199638
9.833333	0.9630302
9.85	1.004827
9.866667	1.043206
9.883333	1.072308
9.9	1.089202
9.916667	1.101116
9.933333	1.109905
9.95	1.11137
9.966667	1.098675
9.983333	1.065472
10	1.00805
10.01667	0.9334404
10.03333	0.8598076
10.05	0.7980888
10.06667	0.7427177
10.08333	0.6890068
10.1	0.6418388
10.11667	0.6023857
10.13333	0.5642998
10.15	0.5279716
10.16667	0.4983818
10.18333	0.4760185
10.2	0.4566826
10.21667	0.4441826
10.23333	0.4394951
10.25	0.4361748
10.26667	0.4229912
10.28333	0.3990654
10.3	0.3736748
10.31667	0.3632255
10.33333	0.3718193
10.35	0.3878349
10.36667	0.3939873
10.38333	0.3851005
10.4	0.3701591
10.41667	0.3597099
10.43333	0.3552178
10.45	0.3539482
10.46667	0.3544365
10.48333	0.3548271
10.5	0.3537529
10.51667	0.3493584
10.53333	0.3480888
10.55	0.3560967
10.56667	0.3676201
10.58333	0.3718193
10.6	0.3671318
10.61667	0.3561943
10.63333	0.3428154
10.65	0.3330498
10.66667	0.330999
10.68333	0.331292
10.7	0.3274834
10.71667	0.321624
10.73333	0.3199638
10.75	0.3239678
10.76667	0.3285576
10.78333	0.3270927
10.8	0.3199638
10.81667	0.315667
10.83333	0.3173271
10.85	0.3229912
10.86667	0.3272881
10.88333	0.3270927
10.9	0.3215263
10.91667	0.314788
10.93333	0.311956
10.95	0.3140068
10.96667	0.3177177
10.98333	0.3193779
11	0.3175224
11.01667	0.315374
11.03333	0.3143974
11.05	0.3152763
11.06667	0.3177177
11.08333	0.3208427
11.1	0.3235771
11.11667	0.3242607
11.13333	0.3226982
11.15	0.3223076
11.16667	0.3218193
11.18333	0.3189873
11.2	0.3144951
11.21667	0.3138115
11.23333	0.3158623
11.25	0.3132256
11.26667	0.3047295
11.28333	0.299456
11.3	0.3052177
11.31667	0.3166435
11.33333	0.3257256
11.35	0.3274834
11.36667	0.328167
11.38333	0.337542
11.4	0.355413
11.41667	0.3670341
11.43333	0.3640068
11.45	0.3549248
11.46667	0.3523857
11.48333	0.3574638
11.5	0.362542
11.51667	0.3658623
11.53333	0.3706474
11.55	0.3785576
11.56667	0.3858818
11.58333	0.393206
11.6	0.4041435
11.61667	0.4169365
11.63333	0.4276787
11.65	0.4363701
11.66667	0.4506279
11.68333	0.4767998
11.7	0.5073662
11.71667	0.5326592
11.73333	0.5489677
11.75	0.5673271
11.76667	0.6008232
11.78333	0.6527764
11.8	0.712249
11.81667	0.7668388
11.83333	0.8127373
11.85	0.8589287
11.86667	0.9129326
11.88333	0.9707451
11.9	1.022405
11.91667	1.064788
11.93333	1.10512
11.95	1.144085
11.96667	1.17514
11.98333	1.188812
12	1.180608
12.01667	1.158831
12.03333	1.137444
12.05	1.119573
12.06667	1.099847
12.08333	1.071233
12.1	1.033245
12.11667	0.993206
12.13333	0.9550225
12.15	0.921331
12.16667	0.890667
12.18333	0.8620537
12.2	0.8335381
12.21667	0.8037529
12.23333	0.7745537
12.25	0.7449638
12.26667	0.7154716
12.28333	0.6909599
12.3	0.6756279
12.31667	0.6674248
12.33333	0.6611748
12.35	0.6597099
12.36667	0.6642998
12.38333	0.6683037
12.4	0.662542
12.41667	0.649749
12.43333	0.6424248
12.45	0.6445732
12.46667	0.6481865
12.48333	0.6461357
12.5	0.6434013
12.51667	0.643499
12.53333	0.6415459
12.55	0.6327568
12.56667	0.6255302
12.58333	0.6268975
12.6	0.6344169
12.61667	0.6418388
12.63333	0.6445732
12.65	0.6445732
12.66667	0.6411552
12.68333	0.6309013
12.7	0.6198662
12.71667	0.6110771
12.73333	0.6052178
12.75	0.6006279
12.76667	0.599456
12.78333	0.6048271
12.8	0.6162529
12.81667	0.6301201
12.83333	0.6408623
12.85	0.640667
12.86667	0.6330498
12.88333	0.6273857
12.9	0.6253349
12.91667	0.6233818
12.93333	0.6215264
12.95	0.621624
12.96667	0.625042
12.98333	0.6311943
13	0.6343193
13.01667	0.6302177
13.03333	0.624163
13.05	0.6284599
13.06667	0.642913
13.08333	0.6534599
13.1	0.6536552
13.11667	0.6490654
13.13333	0.6485771
13.15	0.658538
13.16667	0.6796318
13.18333	0.7059013
13.2	0.730999
13.21667	0.7546318
13.23333	0.7830498
13.25	0.8171318
13.26667	0.8539482
13.28333	0.8880302
13.3	0.9202568
13.31667	0.9529716
13.33333	0.9833428
13.35	1.005901
13.36667	1.023772
13.38333	1.039104
13.4	1.049651
13.41667	1.053948
13.43333	1.051702
13.45	1.046429
13.46667	1.036272
13.48333	1.024554
13.5	1.014593
13.51667	1.003167
13.53333	0.9902763
13.55	0.9761162
13.56667	0.9644951
13.58333	0.9563896
13.6	0.9487724
13.61667	0.9440849
13.63333	0.9440849
13.65	0.9448662
13.66667	0.9413506
13.68333	0.9370537
13.7	0.9346123
13.71667	0.9312919
13.73333	0.9246513
13.75	0.9212334
13.76667	0.9231865
13.78333	0.9264091
13.8	0.9252373
13.81667	0.9164482
13.83333	0.9019951
13.85	0.8889092
13.86667	0.8798271
13.88333	0.871624
13.9	0.8623466
13.91667	0.855999
13.93333	0.8519951
13.95	0.8474053
13.96667	0.8496513
13.98333	0.8674248
14	0.8978935
14.01667	0.9318779
14.03333	0.9703544
14.05	1.024358
14.06667	1.10053
14.08333	1.201214
14.1	1.329144
14.11667	1.485979
14.13333	1.671233
14.15	1.886175
14.16667	2.138128
14.18333	2.422796
14.2	2.719085
14.21667	3.007952
14.23333	3.290667
14.25	3.566058
14.26667	3.821233
14.28333	4.040374
14.3	4.221233
14.31667	4.360296
14.33333	4.448577
14.35	4.48139
14.36667	4.461077
14.38333	4.395843
14.4	4.291741
14.41667	4.149456
14.43333	3.965081
14.45	3.747112
14.46667	3.518597
14.48333	3.299163
14.5	3.088421
14.51667	2.879143
14.53333	2.676995
14.55	2.491839
14.56667	2.329632
14.58333	2.180608
14.6	2.040276
14.61667	1.914007
14.63333	1.804436
14.65	1.704144
14.66667	1.60805
14.68333	1.51928
14.7	1.441058
14.71667	1.370257
14.73333	1.302679
14.75	1.240569
14.76667	1.191839
14.78333	1.159222
14.8	1.129241
14.81667	1.089788
14.83333	1.047112
14.85	1.01762
14.86667	1.002483
14.88333	0.9931084
14.9	0.9780693
14.91667	0.9563896
14.93333	0.937249
14.95	0.9269951
14.96667	0.9258232
14.98333	0.9236748
15	0.9192802
15.01667	0.9162529
15.03333	0.9128349
15.05	0.9032646
15.06667	0.890081
15.08333	0.8819755
15.1	0.8808037
15.11667	0.8784599
15.13333	0.8733818
15.15	0.8691826
15.16667	0.868206
15.18333	0.8674248
15.2	0.8627373
15.21667	0.8548271
15.23333	0.8493584
15.25	0.849749
15.26667	0.8532646
15.28333	0.8566826
15.3	0.8608818
15.31667	0.8670341
15.33333	0.8712333
15.35	0.8711357
15.36667	0.8642998
15.38333	0.8549248
15.4	0.8470146
15.41667	0.846917
15.43333	0.8571709
15.45	0.8724052
15.46667	0.8886162
15.48333	0.9024833
15.5	0.9102958
15.51667	0.9112724
15.53333	0.9072685
15.55	0.9047295
15.56667	0.9070732
15.58333	0.9123467
15.6	0.9139091
15.61667	0.9113701
15.63333	0.9106865
15.65	0.9172295
15.66667	0.9310967
15.68333	0.9422294
15.7	0.9453545
15.71667	0.9444755
15.73333	0.9486748
15.75	0.9569756
15.76667	0.9599053
15.78333	0.9547294
15.8	0.9446709
15.81667	0.9337333
15.83333	0.928167
15.85	0.9345146
15.86667	0.9442803
15.88333	0.9481865
15.9	0.9458427
15.91667	0.9438896
15.93333	0.9469169
15.95	0.9561943
15.96667	0.9695732
15.98333	0.9799248
16	0.9811943
16.01667	0.9826592
16.03333	0.9939873
16.05	1.010979
16.06667	1.023479
16.08333	1.03305
16.1	1.045061
16.11667	1.058831
16.13333	1.06928
16.15	1.085394
16.16667	1.119769
16.18333	1.176507
16.2	1.252972
16.21667	1.35014
16.23333	1.476604
16.25	1.636858
16.26667	1.830022
16.28333	2.054925
16.3	2.315862
16.31667	2.619769
16.33333	2.963421
16.35	3.332952
16.36667	3.713323
16.38333	4.099163
16.4	4.486175
16.41667	4.857366
16.43333	5.19389
16.45	5.485101
16.46667	5.730315
16.48333	5.936468
16.5	6.102093
16.51667	6.217132
16.53333	6.275921
16.55	6.290667
16.56667	6.286565
16.58333	6.281487
16.6	6.285979
16.61667	6.308538
16.63333	6.354632
16.65	6.431292
16.66667	6.546038
16.68333	6.70473
16.7	6.894183
16.71667	7.092523
16.73333	7.287738
16.75	7.476312
16.76667	7.645648
16.78333	7.777191
16.8	7.859222
16.81667	7.895551
16.83333	7.890668
16.85	7.846918
16.86667	7.769574
16.88333	7.670941
16.9	7.566742
16.91667	7.468011
16.93333	7.384418
16.95	7.32182
16.96667	7.279633
16.98333	7.253363
17	7.238129
17.01667	7.230218
17.03333	7.220062
17.05	7.187445
17.06667	7.10805
17.08333	6.971526
17.1	6.787151
17.11667	6.564495
17.13333	6.303167
17.15	6.007952
17.16667	5.689788
17.18333	5.361077
17.2	5.030511
17.21667	4.70844
17.23333	4.399749
17.25	4.096038
17.26667	3.79428
17.28333	3.508245
17.3	3.249651
17.31667	3.017034
17.33333	2.804925
17.35	2.613225
17.36667	2.44389
17.38333	2.294964
17.4	2.16264
17.41667	2.041058
17.43333	1.932562
17.45	1.843206
17.46667	1.76762
17.48333	1.695745
17.5	1.627386
17.51667	1.568987
17.53333	1.521136
17.55	1.479339
17.56667	1.444866
17.58333	1.420061
17.6	1.397698
17.61667	1.366839
17.63333	1.328362
17.65	1.292425
17.66667	1.268987
17.68333	1.255804
17.7	1.25219
17.71667	1.256976
17.73333	1.273382
17.75	1.295647
17.76667	1.31723
17.78333	1.333343
17.8	1.354827
17.81667	1.392327
17.83333	1.444964
17.85	1.50014
17.86667	1.551018
17.88333	1.60678
17.9	1.674944
17.91667	1.752483
17.93333	1.827776
17.95	1.896136
17.96667	1.959124
17.98333	2.017327
18	2.064886
18.01667	2.093304
18.03333	2.101018
18.05	2.096136
18.06667	2.085101
18.08333	2.065374
18.1	2.032659
18.11667	1.991546
18.13333	1.946722
18.15	1.896038
18.16667	1.842425
18.18333	1.789202
18.2	1.736565
18.21667	1.688323
18.23333	1.644476
18.25	1.605999
18.26667	1.572601
18.28333	1.5518
18.3	1.538909
18.31667	1.519866
18.33333	1.494476
18.35	1.476897
18.36667	1.471233
18.38333	1.466839
18.4	1.457366
18.41667	1.446038
18.43333	1.439104
18.45	1.438226
18.46667	1.441253
18.48333	1.444573
18.5	1.448479
18.51667	1.455608
18.53333	1.467425
18.55	1.484612
18.56667	1.506976
18.58333	1.530901
18.6	1.55014
18.61667	1.567132
18.63333	1.587054
18.65	1.610979
18.66667	1.634026
18.68333	1.659222
18.7	1.688812
18.71667	1.712347
18.73333	1.714007
18.75	1.693597
18.76667	1.673382
18.78333	1.672405
18.8	1.68139
18.81667	1.676018
18.83333	1.652874
18.85	1.62514
18.86667	1.602581
18.88333	1.582855
18.9	1.564788
18.91667	1.550042
18.93333	1.540276
18.95	1.529534
18.96667	1.513519
18.98333	1.496136
19	1.48471
19.01667	1.476995
19.03333	1.466644
19.05	1.455022
19.06667	1.44721
19.08333	1.445843
19.1	1.447308
19.11667	1.446429
19.13333	1.446233
19.15	1.447112
19.16667	1.444476
19.18333	1.437249
19.2	1.431292
19.21667	1.432171
19.23333	1.435979
19.25	1.435589
19.26667	1.431585
19.28333	1.431683
19.3	1.436663
19.31667	1.44096
19.33333	1.440179
19.35	1.433733
19.36667	1.422112
19.38333	1.408929
19.4	1.397112
19.41667	1.385687
19.43333	1.376995
19.45	1.374554
19.46667	1.379632
19.48333	1.385003
19.5	1.385296
19.51667	1.383343
19.53333	1.382171
19.55	1.382854
19.56667	1.389104
19.58333	1.403948
19.6	1.429046
19.61667	1.457171
19.63333	1.481878
19.65	1.499456
19.66667	1.517522
19.68333	1.539983
19.7	1.566253
19.71667	1.590081
19.73333	1.613518
19.75	1.638519
19.76667	1.666253
19.78333	1.695843
19.8	1.726311
19.81667	1.757757
19.83333	1.790862
19.85	1.827483
19.86667	1.86596
19.88333	1.9018
19.9	1.933929
19.91667	1.971233
19.93333	2.024261
19.95	2.091937
19.96667	2.165179
19.98333	2.237347
20	2.30971
20.01667	2.382464
20.03333	2.449749
20.05	2.503265
20.06667	2.538518
20.08333	2.557659
20.1	2.566253
20.11667	2.56723
20.13333	2.55678
20.15	2.530804
20.16667	2.488323
20.18333	2.435101
20.2	2.378558
20.21667	2.324554
20.23333	2.275335
20.25	2.228558
20.26667	2.182171
20.28333	2.135589
20.3	2.090472
20.31667	2.048089
20.33333	2.00805
20.35	1.968792
20.36667	1.936077
20.38333	1.91762
20.4	1.910784
20.41667	1.900921
20.43333	1.87973
20.45	1.856097
20.46667	1.838812
20.48333	1.829241
20.5	1.82094
20.51667	1.812933
20.53333	1.808636
20.55	1.805022
20.56667	1.797015
20.58333	1.789983
20.6	1.797112
20.61667	1.826311
20.63333	1.87094
20.65	1.925628
20.66667	1.996722
20.68333	2.092132
20.7	2.216546
20.71667	2.374944
20.73333	2.570452
20.75	2.797991
20.76667	3.049554
20.78333	3.322503
20.8	3.612737
20.81667	3.906976
20.83333	4.19555
20.85	4.477874
20.86667	4.747112
20.88333	4.982464
20.9	5.162542
20.91667	5.282561
20.93333	5.348382
20.95	5.3643
20.96667	5.333734
20.98333	5.267034
21	5.18178
21.01667	5.088714
21.03333	4.992034
21.05	4.897796
21.06667	4.817815
21.08333	4.768889
21.1	4.764886
21.11667	4.810198
21.13333	4.899261
21.15	5.016351
21.16667	5.14887
21.18333	5.296721
21.2	5.457464
21.21667	5.623089
21.23333	5.782073
21.25	5.920257
21.26667	6.023187
21.28333	6.083148
21.3	6.107268
21.31667	6.104144
21.33333	6.075921
21.35	6.023772
21.36667	5.95473
21.38333	5.879925
21.4	5.818694
21.41667	5.784905
21.43333	5.776311
21.45	5.785394
21.46667	5.817327
21.48333	5.876116
21.5	5.952288
21.51667	6.029632
21.53333	6.100823
21.55	6.157171
21.56667	6.183245
21.58333	6.168011
21.6	6.109221
21.61667	6.004144
21.63333	5.853265
21.65	5.663128
21.66667	5.443987
21.68333	5.205218
21.7	4.954632
21.71667	4.702288
21.73333	4.453948
21.75	4.216643
21.76667	3.996038
21.78333	3.790569
21.8	3.596038
21.81667	3.4143
21.83333	3.249651
21.85	3.103265
21.86667	2.976311
21.88333	2.868401
21.9	2.771038
21.91667	2.675335
21.93333	2.583538
21.95	2.501409
21.96667	2.423772
21.98333	2.34262
22	2.263323
22.01667	2.197015
22.03333	2.145061
22.05	2.097796
22.06667	2.052776
22.08333	2.013812
22.1	1.985101
22.11667	1.967034
22.13333	1.959026
22.15	1.957268
22.16667	1.959319
22.18333	1.965179
22.2	1.975628
22.21667	1.993597
22.23333	2.024554
22.25	2.059808
22.26667	2.088323
22.28333	2.11303
22.3	2.140765
22.31667	2.172112
22.33333	2.206292
22.35	2.244573
22.36667	2.283538
22.38333	2.320061
22.4	2.354339
22.41667	2.384612
22.43333	2.403558
22.45	2.415276
22.46667	2.428851
22.48333	2.433831
22.5	2.420062
22.51667	2.396429
22.53333	2.376019
22.55	2.357562
22.56667	2.332464
22.58333	2.299358
22.6	2.260394
22.61667	2.218011
22.63333	2.178753
22.65	2.148089
22.66667	2.121233
22.68333	2.08969
22.7	2.055022
22.71667	2.033733
22.73333	2.033831
22.75	2.041839
22.76667	2.043987
22.78333	2.045843
22.8	2.061858
22.81667	2.094085
22.83333	2.136565
22.85	2.179339
22.86667	2.218304
22.88333	2.259417
22.9	2.317132
22.91667	2.399554
22.93333	2.50014
22.95	2.612054
22.96667	2.743011
22.98333	2.904632
23	3.101604
23.01667	3.343694
23.03333	3.655511
23.05	4.064788
23.06667	4.58344
23.08333	5.217815
23.1	5.986077
23.11667	6.9101
23.13333	7.987543
23.15	9.191645
23.16667	10.49379
23.18333	11.86674
23.2	13.27348
23.21667	14.65297
23.23333	15.93833
23.25	17.07641
23.26667	18.02543
23.28333	18.75131
23.3	19.22358
23.31667	19.42524
23.33333	19.36167
23.35	19.04917
23.36667	18.51313
23.38333	17.79213
23.4	16.93735
23.41667	15.99741
23.43333	15.00571
23.45	13.98608
23.46667	12.9685
23.48333	11.98705
23.5	11.06079
23.51667	10.18823
23.53333	9.364985
23.55	8.601898
23.56667	7.909223
23.58333	7.282758
23.6	6.712542
23.61667	6.196819
23.63333	5.738811
23.65	5.331292
23.66667	4.962542
23.68333	4.628362
23.7	4.331878
23.71667	4.07348
23.73333	3.849651
23.75	3.656682
23.76667	3.496917
23.78333	3.377679
23.8	3.304241
23.81667	3.269964
23.83333	3.259222
23.85	3.268011
23.86667	3.300237
23.88333	3.362249
23.9	3.447796
23.91667	3.542522
23.93333	3.636858
23.95	3.732464
23.96667	3.831292
23.98333	3.928753
24	4.013421
24.01667	4.078167
24.03333	4.122991
24.05	4.146136
24.06667	4.143011
24.08333	4.115374
24.1	4.075433
24.11667	4.030999
24.13333	3.977679
24.15	3.915374
24.16667	3.854241
24.18333	3.798772
24.2	3.745745
24.21667	3.698089
24.23333	3.666058
24.25	3.651409
24.26667	3.649847
24.28333	3.669671
24.3	3.72055
24.31667	3.796331
24.33333	3.882561
24.35	3.971136
24.36667	4.068694
24.38333	4.179729
24.4	4.299554
24.41667	4.415765
24.43333	4.512053
24.45	4.581097
24.46667	4.622308
24.48333	4.638226
24.5	4.627483
24.51667	4.594573
24.53333	4.547503
24.55	4.494475
24.56667	4.441253
24.58333	4.394573
24.6	4.365276
24.61667	4.369085
24.63333	4.43012
24.65	4.576018
24.66667	4.831487
24.68333	5.223382
24.7	5.785686
24.71667	6.549944
24.73333	7.536957
24.75	8.763715
24.76667	10.24975
24.78333	11.99672
24.8	13.9768
24.81667	16.14448
24.83333	18.44272
24.85	20.79858
24.86667	23.12573
24.88333	25.3396
24.9	27.36245
24.91667	29.11283
24.93333	30.50942
24.95	31.48793
24.96667	32.0228
24.98333	32.1309
25	31.84252
25.01667	31.18881
25.03333	30.20766
25.05	28.95658
25.06667	27.50229
25.08333	25.91323
25.1	24.25913
25.11667	22.59907
25.13333	20.96489
25.15	19.37378
25.16667	17.84526
25.18333	16.40424
25.2	15.06147
25.21667	13.81049
25.23333	12.6517
25.25	11.59418
25.26667	10.63793
25.28333	9.768989
25.3	8.970746
25.31667	8.240179
25.33333	7.577777
25.35	6.980218
25.36667	6.441936
25.38333	5.963323
25.4	5.542718
25.41667	5.172307
25.43333	4.844964
25.45	4.560296
25.46667	4.314788
25.48333	4.099651
25.5	3.909319
25.51667	3.745159
25.53333	3.611761
25.55	3.511272
25.56667	3.436565
25.58333	3.377972
25.6	3.338226
25.61667	3.326897
25.63333	3.349261
25.65	3.402581
25.66667	3.483147
25.68333	3.587151
25.7	3.711956
25.71667	3.850628
25.73333	3.988714
25.75	4.114495
25.76667	4.229144
25.78333	4.343499
25.8	4.460393
25.81667	4.571624
25.83333	4.667913
25.85	4.746526
25.86667	4.810589
25.88333	4.869183
25.9	4.92719
25.91667	4.98471
25.93333	5.041644
25.95	5.097796
25.96667	5.152093
25.98333	5.197308
26	5.232952
26.01667	5.26596
26.03333	5.297894
26.05	5.318304
26.06667	5.31635
26.08333	5.290569
26.1	5.245257
26.11667	5.184808
26.13333	5.110003
26.15	5.017425
26.16667	4.904827
26.18333	4.77719
26.2	4.646234
26.21667	4.519183
26.23333	4.390081
26.25	4.252386
26.26667	4.11137
26.28333	3.976995
26.3	3.85219
26.31667	3.73178
26.33333	3.61928
26.35	3.521429
26.36667	3.440472
26.38333	3.376702
26.4	3.338323
26.41667	3.335003
26.43333	3.373187
26.45	3.462054
26.46667	3.618011
26.48333	3.85971
26.5	4.204046
26.51667	4.672307
26.53333	5.285394
26.55	6.060198
26.56667	7.003655
26.58333	8.117816
26.6	9.400043
26.61667	10.82875
26.63333	12.36547
26.65	13.96342
26.66667	15.5768
26.68333	17.1477
26.7	18.60649
26.71667	19.89018
26.73333	20.94829
26.75	21.74409
26.76667	22.25444
26.78333	22.46606
26.8	22.37465
26.81667	21.99672
26.83333	21.37807
26.85	20.56801
26.86667	19.60629
26.88333	18.52895
26.9	17.3812
26.91667	16.20815
26.93333	15.04057
26.95	13.9018
26.96667	12.80688
26.98333	11.76791
27	10.79809
27.01667	9.906684
27.03333	9.093403
27.05	8.353363
27.06667	7.682172
27.08333	7.076116
27.1	6.530608
27.11667	6.038421
27.13333	5.598773
27.15	5.214886
27.16667	4.890667
27.18333	4.622601
27.2	4.399944
27.21667	4.216351
27.23333	4.072894
27.25	3.975921
27.26667	3.934222
27.28333	3.953557
27.3	4.03637
27.31667	4.180218
27.33333	4.387347
27.35	4.668011
27.36667	5.031096
27.38333	5.481097
27.4	6.012542
27.41667	6.614398
27.43333	7.271332
27.45	7.96684
27.46667	8.68305
27.48333	9.402289
27.5	10.10659
27.51667	10.76518
27.53333	11.33559
27.55	11.78393
27.56667	12.10424
27.58333	12.30366
27.6	12.38432
27.61667	12.34096
27.63333	12.17573
27.65	11.89594
27.66667	11.51538
27.68333	11.06088
27.7	10.56166
27.71667	10.03618
27.73333	9.49272
27.75	8.944672
27.76667	8.406
27.78333	7.881293
27.8	7.374652
27.81667	6.898577
27.83333	6.466741
27.85	6.078655
27.86667	5.724749
27.88333	5.400628
27.9	5.10844
27.91667	4.851312
27.93333	4.632562
27.95	4.448186
27.96667	4.287444
27.98333	4.140765
28	4.009515
28.01667	3.899847
28.03333	3.809905
28.05	3.730999
28.06667	3.659124
28.08333	3.594866
28.1	3.538421
28.11667	3.484807
28.13333	3.430608
28.15	3.375628
28.16667	3.320745
28.18333	3.270452
28.2	3.229241
28.21667	3.193499
28.23333	3.156097
28.25	3.119183
28.26667	3.091351
28.28333	3.073186
28.3	3.060198
28.31667	3.053558
28.33333	3.059808
28.35	3.078557
28.36667	3.115862
28.38333	3.17094
28.4	3.236272
28.41667	3.308343
28.43333	3.391546
28.45	3.492913
28.46667	3.607562
28.48333	3.730218
28.5	3.866839
28.51667	4.016839
28.53333	4.172405
28.55	4.329534
28.56667	4.494573
28.58333	4.673284
28.6	4.865179
28.61667	5.073284
28.63333	5.302679
28.65	5.550921
28.66667	5.80844
28.68333	6.069573
28.7	6.335393
28.71667	6.599065
28.73333	6.839788
28.75	7.042034
28.76667	7.206293
28.78333	7.334027
28.8	7.419965
28.81667	7.458051
28.83333	7.449066
28.85	7.389594
28.86667	7.279242
28.88333	7.132953
28.9	6.970061
28.91667	6.806878
28.93333	6.654241
28.95	6.520648
28.96667	6.405511
28.98333	6.303265
29	6.217034
29.01667	6.157073
29.03333	6.123187
29.05	6.106878
29.06667	6.097014
29.08333	6.089886
29.1	6.086175
29.11667	6.085589
29.13333	6.085979
29.15	6.082561
29.16667	6.071722
29.18333	6.059319
29.2	6.055902
29.21667	6.071917
29.23333	6.10678
29.25	6.151507
29.26667	6.203167
29.28333	6.27221
29.3	6.371624
29.31667	6.50385
29.33333	6.655901
29.35	6.809808
29.36667	6.94887
29.38333	7.064691
29.4	7.153754
29.41667	7.215472
29.43333	7.246918
29.45	7.235003
29.46667	7.166449
29.48333	7.045843
29.5	6.894085
29.51667	6.721038
29.53333	6.521722
29.55	6.299456
29.56667	6.071038
29.58333	5.845257
29.6	5.617132
29.61667	5.386272
29.63333	5.166253
29.65	4.967132
29.66667	4.779729
29.68333	4.597796
29.7	4.431097
29.71667	4.291839
29.73333	4.173186
29.75	4.061663
29.76667	3.95346
29.78333	3.851311
29.8	3.752679
29.81667	3.660393
29.83333	3.582561
29.85	3.524456
29.86667	3.477972
29.88333	3.432561
29.9	3.382561
29.91667	3.327679
29.93333	3.276507
29.95	3.238714
29.96667	3.217425
29.98333	3.207659
30	3.2018
30.01667	3.192913
30.03333	3.18637
30.05	3.191741
30.06667	3.212347
30.08333	3.239495
30.1	3.263616
30.11667	3.284905
30.13333	3.305315
30.15	3.325628
30.16667	3.349749
30.18333	3.388519
30.2	3.444573
30.21667	3.508733
30.23333	3.576507
30.25	3.660686
30.26667	3.774065
30.28333	3.917229
30.3	4.086077
30.31667	4.29135
30.33333	4.5518
30.35	4.879925
30.36667	5.271917
30.38333	5.724065
30.4	6.234319
30.41667	6.795257
30.43333	7.386957
30.45	7.991839
30.46667	8.593402
30.48333	9.168402
30.5	9.685884
30.51667	10.11547
30.53333	10.44331
30.55	10.66899
30.56667	10.79086
30.58333	10.80463
30.6	10.71313
30.61667	10.52573
30.63333	10.25161
30.65	9.900141
30.66667	9.490767
30.68333	9.050824
30.7	8.605707
30.71667	8.168695
30.73333	7.735492
30.75	7.310492
30.76667	6.904339
30.78333	6.530706
30.8	6.191741
30.81667	5.887151
30.83333	5.617327
30.85	5.38012
30.86667	5.169671
30.88333	4.977093
30.9	4.798089
30.91667	4.632952
30.93333	4.488323
30.95	4.368304
30.96667	4.267913
30.98333	4.177972
31	4.094573
31.01667	4.020843
31.03333	3.955901
31.05	3.891644
31.06667	3.824847
31.08333	3.758636
31.1	3.697015
31.11667	3.639593
31.13333	3.585003
31.15	3.533343
31.16667	3.487444
31.18333	3.448382
31.2	3.417815
31.21667	3.39555
31.23333	3.373772
31.25	3.350433
31.26667	3.32973
31.28333	3.317718
31.3	3.310101
31.31667	3.30053
31.33333	3.290765
31.35	3.286565
31.36667	3.28803
31.38333	3.290667
31.4	3.292132
31.41667	3.29428
31.43333	3.296722
31.45	3.296136
31.46667	3.296429
31.48333	3.302581
31.5	3.309319
31.51667	3.309515
31.53333	3.306097
31.55	3.304534
31.56667	3.302093
31.58333	3.298284
31.6	3.291936
31.61667	3.284905
31.63333	3.276116
31.65	3.261858
31.66667	3.240765
31.68333	3.218206
31.7	3.201897
31.71667	3.191936
31.73333	3.182171
31.75	3.170647
31.76667	3.161956
31.78333	3.159124
31.8	3.161273
31.81667	3.15971
31.83333	3.148577
31.85	3.135198
31.86667	3.134808
31.88333	3.148675
31.9	3.162249
31.91667	3.167913
31.93333	3.174065
31.95	3.193499
31.96667	3.22719
31.98333	3.266351
32	3.307659
32.01667	3.354925
32.03333	3.418011
32.05	3.506585
32.06667	3.619769
32.08333	3.741936
32.1	3.859026
32.11667	3.976409
32.13333	4.104632
32.15	4.24389
32.16667	4.39223
32.18333	4.546233
32.2	4.695354
32.21667	4.821038
32.23333	4.910003
32.25	4.965765
32.26667	4.997893
32.28333	5.013616
32.3	5.003655
32.31667	4.960198
32.33333	4.888421
32.35	4.8018
32.36667	4.705608
32.38333	4.601214
32.4	4.493694
32.41667	4.392034
32.43333	4.295843
32.45	4.197894
32.46667	4.100726
32.48333	4.017034
32.5	3.954241
32.51667	3.903362
32.53333	3.849456
32.55	3.78637
32.56667	3.725726
32.58333	3.682561
32.6	3.658636
32.61667	3.641644
32.63333	3.62094
32.65	3.595062
32.66667	3.566546
32.68333	3.536761
32.7	3.508343
32.71667	3.481194
32.73333	3.457561
32.75	3.4393
32.76667	3.418401
32.78333	3.393304
32.8	3.367522
32.81667	3.346624
32.83333	3.328851
32.85	3.30844
32.86667	3.281682
32.88333	3.253265
32.9	3.232366
32.91667	3.214886
32.93333	3.190862
32.95	3.162054
32.96667	3.140667
32.98333	3.126702
33	3.116448
33.01667	3.107464
33.03333	3.1018
33.05	3.097405
33.06667	3.092425
33.08333	3.088616
33.1	3.083538
33.11667	3.080608
33.13333	3.084905
33.15	3.0976
33.16667	3.107659
33.18333	3.106585
33.2	3.099163
33.21667	3.101409
33.23333	3.122112
33.25	3.154339
33.26667	3.185491
33.28333	3.212249
33.3	3.23764
33.31667	3.263226
33.33333	3.287444
33.35	3.303558
33.36667	3.308343
33.38333	3.30971
33.4	3.31596
33.41667	3.324456
33.43333	3.328851
33.45	3.328167
33.46667	3.325628
33.48333	3.322405
33.5	3.316741
33.51667	3.308147
33.53333	3.29848
33.55	3.292522
33.56667	3.28637
33.58333	3.278362
33.6	3.271917
33.61667	3.268499
33.63333	3.259026
33.65	3.242034
33.66667	3.226507
33.68333	3.221819
33.7	3.224847
33.71667	3.226507
33.73333	3.222503
33.75	3.213909
33.76667	3.208636
33.78333	3.209612
33.8	3.209222
33.81667	3.20053
33.83333	3.191253
33.85	3.19262
33.86667	3.202581
33.88333	3.209808
33.9	3.212444
33.91667	3.213811
33.93333	3.21762
33.95	3.228265
33.96667	3.244866
33.98333	3.263616
34	3.278851
34.01667	3.290374
34.03333	3.3018
34.05	3.313128
34.06667	3.320257
34.08333	3.32514
34.1	3.33012
34.11667	3.336077
34.13333	3.340472
34.15	3.345062
34.16667	3.354046
34.18333	3.366058
34.2	3.370354
34.21667	3.356683
34.23333	3.33344
34.25	3.319573
34.26667	3.317132
34.28333	3.318401
34.3	3.318694
34.31667	3.317523
34.33333	3.312347
34.35	3.302386
34.36667	3.291448
34.38333	3.28178
34.4	3.274261
34.41667	3.267425
34.43333	3.254925
34.45	3.239007
34.46667	3.228655
34.48333	3.228948
34.5	3.23012
34.51667	3.223577
34.53333	3.212444
34.55	3.206487
34.56667	3.207659
34.58333	3.210686
34.6	3.21469
34.61667	3.224358
34.63333	3.235491
34.65	3.239788
34.66667	3.234515
34.68333	3.228948
34.7	3.226702
34.71667	3.222796
34.73333	3.215569
34.75	3.209515
34.76667	3.206683
34.78333	3.207855
34.8	3.213616
34.81667	3.221429
34.83333	3.224163
34.85	3.218108
34.86667	3.211175
34.88333	3.210491
34.9	3.215667
34.91667	3.221038
34.93333	3.218499
34.95	3.214593
34.96667	3.217229
34.98333	3.23012
35	3.240276
35.01667	3.235589
35.03333	3.220257
35.05	3.213128
35.06667	3.220647
35.08333	3.234026
35.1	3.243987
35.11667	3.25014
35.13333	3.254632
35.15	3.25512
35.16667	3.247796
35.18333	3.234319
35.2	3.223968
35.21667	3.225237
35.23333	3.23764
35.25	3.255023
35.26667	3.270648
35.28333	3.28012
35.3	3.284124
35.31667	3.282757
35.33333	3.274358
35.35	3.268597
35.36667	3.27719
35.38333	3.296136
35.4	3.313714
35.41667	3.320159
35.43333	3.31928
35.45	3.313616
35.46667	3.30844
35.48333	3.313323
35.5	3.328557
35.51667	3.342718
35.53333	3.346331
35.55	3.340374
35.56667	3.338714
35.58333	3.342913
35.6	3.3476
35.61667	3.345355
35.63333	3.342229
35.65	3.342425
35.66667	3.340667
35.68333	3.333245
35.7	3.326214
35.71667	3.328069
35.73333	3.337835
35.75	3.345843
35.76667	3.342815
35.78333	3.33139
35.8	3.32221
35.81667	3.323382
35.83333	3.330608
35.85	3.334808
35.86667	3.334515
35.88333	3.334612
35.9	3.331683
35.91667	3.321038
35.93333	3.304339
35.95	3.291644
35.96667	3.291155
35.98333	3.302386
36	3.31469
36.01667	3.316643
36.03333	3.313226
36.05	3.314886
36.06667	3.324065
36.08333	3.33305
36.1	3.336663
36.11667	3.337347
36.13333	3.341937
36.15	3.355706
36.16667	3.368499
36.18333	3.366936
36.2	3.351116
36.21667	3.337249
36.23333	3.338128
36.25	3.348968
36.26667	3.361468
36.28333	3.371526
36.3	3.373089
36.31667	3.365667
36.33333	3.358343
36.35	3.362054
36.36667	3.373187
36.38333	3.382659
36.4	3.387835
36.41667	3.384515
36.43333	3.373284
36.45	3.357464
36.46667	3.345452
36.48333	3.34848
36.5	3.365374
36.51667	3.38637
36.53333	3.401995
36.55	3.404339
36.56667	3.393987
36.58333	3.38178
36.6	3.384319
36.61667	3.401019
36.63333	3.412054
36.65	3.406585
36.66667	3.391253
36.68333	3.38139
36.7	3.385686
36.71667	3.399358
36.73333	3.409124
36.75	3.406487
36.76667	3.396917
36.78333	3.395843
36.8	3.40805
36.81667	3.422503
36.83333	3.427972
36.85	3.424847
36.86667	3.41928
36.88333	3.415667
36.9	3.416644
36.91667	3.424261
36.93333	3.434124
36.95	3.438812
36.96667	3.438226
36.98333	3.438909
37	3.445647
37.01667	3.458245
37.03333	3.472991
37.05	3.481487
37.06667	3.479827
37.08333	3.470257
37.1	3.462054
37.11667	3.462249
37.13333	3.466253
37.15	3.466644
37.16667	3.466253
37.18333	3.474456
37.2	3.488323
37.21667	3.497894
37.23333	3.498968
37.25	3.49428
37.26667	3.488518
37.28333	3.487835
37.3	3.495159
37.31667	3.507659
37.33333	3.521136
37.35	3.531976
37.36667	3.541253
37.38333	3.545745
37.4	3.544573
37.41667	3.543499
37.43333	3.547698
37.45	3.552288
37.46667	3.547601
37.48333	3.533733
37.5	3.522601
37.51667	3.521136
37.53333	3.528655
37.55	3.541253
37.56667	3.555706
37.58333	3.565569
37.6	3.568499
37.61667	3.569573
37.63333	3.571819
37.65	3.57221
37.66667	3.567425
37.68333	3.560589
37.7	3.551409
37.71667	3.540081
37.73333	3.533929
37.75	3.537151
37.76667	3.545257
37.78333	3.549065
37.8	3.549065
37.81667	3.549261
37.83333	3.554632
37.85	3.564105
37.86667	3.571429
37.88333	3.57094
37.9	3.56635
37.91667	3.566839
37.93333	3.574749
37.95	3.583343
37.96667	3.588519
37.98333	3.590374
38	3.589202
38.01667	3.584026
38.03333	3.574944
38.05	3.5643
38.06667	3.558636
38.08333	3.561272
38.1	3.568987
38.11667	3.576019
38.13333	3.578851
38.15	3.578362
38.16667	3.579534
38.18333	3.584319
38.2	3.586663
38.21667	3.583343
38.23333	3.581683
38.25	3.586272
38.26667	3.590569
38.28333	3.58969
38.3	3.592229
38.31667	3.604729
38.33333	3.616448
38.35	3.621233
38.36667	3.623187
38.38333	3.630413
38.4	3.641741
38.41667	3.646429
38.43333	3.643206
38.45	3.634515
38.46667	3.627679
38.48333	3.622698
38.5	3.61596
38.51667	3.60805
38.53333	3.602581
38.55	3.601116
38.56667	3.601897
38.58333	3.602776
38.6	3.60678
38.61667	3.611956
38.63333	3.612933
38.65	3.61264
38.66667	3.61928
38.68333	3.632464
38.7	3.639104
38.71667	3.630511
38.73333	3.619183
38.75	3.619085
38.76667	3.629339
38.78333	3.639886
38.8	3.645355
38.81667	3.651116
38.83333	3.656976
38.85	3.660491
38.86667	3.665179
38.88333	3.671526
38.9	3.669671
38.91667	3.659515
38.93333	3.654339
38.95	3.658831
38.96667	3.665081
38.98333	3.664788
39	3.66098
39.01667	3.662347
39.03333	3.674651
39.05	3.693401
39.06667	3.712835
39.08333	3.732464
39.1	3.74887
39.11667	3.760003
39.13333	3.764495
39.15	3.766253
39.16667	3.769378
39.18333	3.778265
39.2	3.793694
39.21667	3.811565
39.23333	3.8268
39.25	3.83803
39.26667	3.84848
39.28333	3.862444
39.3	3.88637
39.31667	3.917034
39.33333	3.94721
39.35	3.974261
39.36667	3.997894
39.38333	4.018401
39.4	4.035003
39.41667	4.053069
39.43333	4.076409
39.45	4.105022
39.46667	4.139398
39.48333	4.179632
39.5	4.219769
39.51667	4.255413
39.53333	4.288323
39.55	4.32553
39.56667	4.365569
39.58333	4.402678
39.6	4.437542
39.61667	4.469671
39.63333	4.49389
39.65	4.513323
39.66667	4.539104
39.68333	4.578265
39.7	4.623968
39.71667	4.670257
39.73333	4.717034
39.75	4.762835
39.76667	4.804729
39.78333	4.840081
39.8	4.872601
39.81667	4.910394
39.83333	4.956878
39.85	5.006194
39.86667	5.051995
39.88333	5.093792
39.9	5.132464
39.91667	5.17387
39.93333	5.224651
39.95	5.283147
39.96667	5.337152
39.98333	5.385003
40	5.432464
40.01667	5.48139
40.03333	5.527972
40.05	5.57055
40.06667	5.609417
40.08333	5.645745
40.1	5.686077
40.11667	5.731878
40.13333	5.775433
40.15	5.814105
40.16667	5.854144
40.18333	5.90014
40.2	5.948772
40.21667	6.000726
40.23333	6.062737
40.25	6.130999
40.26667	6.191448
40.28333	6.24096
40.3	6.287737
40.31667	6.335784
40.33333	6.377191
40.35	6.409808
40.36667	6.442523
40.38333	6.481878
40.4	6.52719
40.41667	6.576018
40.43333	6.627776
40.45	6.678753
40.46667	6.724456
40.48333	6.764593
40.5	6.804046
40.51667	6.846136
40.53333	6.892522
40.55	6.938909
40.56667	6.981292
40.58333	7.021624
40.6	7.070257
40.61667	7.134125
40.63333	7.211371
40.65	7.293109
40.66667	7.366058
40.68333	7.417132
40.7	7.443305
40.71667	7.452191
40.73333	7.450238
40.75	7.438128
40.76667	7.414886
40.78333	7.385199
40.8	7.35307
40.81667	7.320648
40.83333	7.291156
40.85	7.270551
40.86667	7.258246
40.88333	7.253363
40.9	7.256097
40.91667	7.268012
40.93333	7.283929
40.95	7.295746
40.96667	7.301605
40.98333	7.308734
41	7.317914
41.01667	7.327289
41.03333	7.335004
41.05	7.341352
41.06667	7.342719
41.08333	7.342816
41.1	7.353461
41.11667	7.377875
41.13333	7.409418
41.15	7.439203
41.16667	7.460785
41.18333	7.477777
41.2	7.497992
41.21667	7.524554
41.23333	7.546625
41.25	7.557953
41.26667	7.565179
41.28333	7.580609
41.3	7.601214
41.31667	7.615472
41.33333	7.621137
41.35	7.62475
41.36667	7.630511
41.38333	7.638617
41.4	7.645941
41.41667	7.65307
41.43333	7.663714
41.45	7.681
41.46667	7.69848
41.48333	7.710589
41.5	7.72348
41.51667	7.745648
41.53333	7.776507
41.55	7.797308
41.56667	7.799262
41.58333	7.797797
41.6	7.811957
41.61667	7.842719
41.63333	7.878265
41.65	7.906
41.66667	7.922211
41.68333	7.93139
41.7	7.93891
41.71667	7.945844
41.73333	7.95307
41.75	7.963324
41.76667	7.980512
41.78333	8.001312
41.8	8.021429
41.81667	8.035687
41.83333	8.047406
41.85	8.056976
41.86667	8.060199
41.88333	8.057856
41.9	8.058637
41.91667	8.067035
41.93333	8.079437
41.95	8.09389
41.96667	8.11264
41.98333	8.135101
42	8.153168
42.01667	8.161761
42.03333	8.166254
42.05	8.173187
42.06667	8.184515
42.08333	8.198578
42.1	8.211273
42.11667	8.2185
42.13333	8.226507
42.15	8.240082
42.16667	8.254046
42.18333	8.258539
42.2	8.25561
42.21667	8.255316
42.23333	8.259809
42.25	8.265668
42.26667	8.267817
42.28333	8.27016
42.3	8.277094
42.31667	8.282855
42.33333	8.277582
42.35	8.266937
42.36667	8.268793
42.38333	8.287152
42.4	8.305023
42.41667	8.307269
42.43333	8.301801
42.45	8.307367
42.46667	8.318598
42.48333	8.323969
42.5	8.321332
42.51667	8.316937
42.53333	8.313324
42.55	8.310785
42.56667	8.31557
42.58333	8.325727
42.6	8.33432
42.61667	8.339106
42.63333	8.344769
42.65	8.350922
42.66667	8.353363
42.68333	8.351313
42.7	8.347699
42.71667	8.347211
42.73333	8.347895
42.75	8.343695
42.76667	8.335492
42.78333	8.330218
42.8	8.330707
42.81667	8.328656
42.83333	8.316351
42.85	8.29848
42.86667	8.283636
42.88333	8.271332
42.9	8.252777
42.91667	8.226898
42.93333	8.202289
42.95	8.195257
42.96667	8.211761
42.98333	8.240863
43	8.268305
43.01667	8.290472
43.03333	8.314692
43.05	8.338519
43.06667	8.353168
43.08333	8.348969
43.1	8.327972
43.11667	8.299067
43.13333	8.260981
43.15	8.2018
43.16667	8.109515
43.18333	7.980316
43.2	7.817719
43.21667	7.624359
43.23333	7.407562
43.25	7.17514
43.26667	6.934124
43.28333	6.6893
43.3	6.447698
43.31667	6.217523
43.33333	6.004925
43.35	5.808636
43.36667	5.623675
43.38333	5.445452
43.4	5.275042
43.41667	5.115081
43.43333	4.960979
43.45	4.805608
43.46667	4.651116
43.48333	4.506976
43.5	4.378753
43.51667	4.263421
43.53333	4.149554
43.55	4.029437
43.56667	3.90805
43.58333	3.796038
43.6	3.693206
43.61667	3.587542
43.63333	3.473773
43.65	3.360687
43.66667	3.257561
43.68333	3.167522
43.7	3.085296
43.71667	3.00346
43.73333	2.913421
43.75	2.817425
43.76667	2.728655
43.78333	2.652776
43.8	2.583343
43.81667	2.510101
43.83333	2.432659
43.85	2.354339
43.86667	2.276409
43.88333	2.200335
43.9	2.126214
43.91667	2.054729
43.93333	1.985784
43.95	1.921233
43.96667	1.861077
43.98333	1.801214
44	1.738811
44.01667	1.680608
44.03333	1.636272
44.05	1.603948
44.06667	1.566351
44.08333	1.513714
44.1	1.453265
44.11667	1.396624
44.13333	1.347991
44.15	1.305511
44.16667	1.266253
44.18333	1.230511
44.2	1.199554
44.21667	1.170647
44.23333	1.139202
44.25	1.10639
44.26667	1.077483
44.28333	1.053265
44.3	1.030804
44.31667	1.00805
44.33333	0.984124
44.35	0.9542412
44.36667	0.9229912
44.38333	0.900335
44.4	0.8878349
44.41667	0.877874
44.43333	0.862249
44.45	0.8401787
44.46667	0.8171318
44.48333	0.7951592
44.5	0.7786552
44.51667	0.7664482
44.53333	0.7530693
44.55	0.7373466
44.56667	0.7208427
44.58333	0.705706
44.6	0.6877373
44.61667	0.6637138
44.63333	0.6396904
44.65	0.6189873
44.66667	0.5990654
44.68333	0.5754326
44.7	0.5481865
44.71667	0.5204521
44.73333	0.4987724
44.75	0.4890068
44.76667	0.4857841
44.78333	0.4736748
44.8	0.4434013
44.81667	0.4066826
44.83333	0.3827568
44.85	0.3700615
44.86667	0.3558037
44.88333	0.3384209
44.9	0.3282646
44.91667	0.3190849
44.93333	0.3005303
44.95	0.2780693
44.96667	0.2613701
44.98333	0.2517998
45	0.2420342
45.01667	0.2293388
45.03333	0.2128349
45.05	0.1977959
45.06667	0.1898857
45.08333	0.1891045
45.1	0.1881279
45.11667	0.1788506
45.13333	0.1607842
45.15	0.1407646
45.16667	0.1243584
45.18333	0.1161552
45.2	0.1134209
45.21667	0.1148857
45.23333	0.1201591
45.25	0.1252373
45.26667	0.1287529
45.28333	0.1316826
45.3	0.1316826
45.31667	0.1226982
45.33333	0.1039482
45.35	0.08373336
45.36667	0.07211228
45.38333	0.06752243
45.4	0.06547165
45.41667	0.06537399
45.43333	0.0662529
45.45	0.06283493
45.46667	0.05267868
45.48333	0.04320602
45.5	0.03871384
45.51667	0.03363571
45.53333	0.02513962
45.55	0.01762009
45.56667	0.01605759
45.58333	0.01732712
45.6	0.01693649
45.61667	0.01361618
45.63333	0.01322556
45.65	0.01947556
45.66667	0.02816696
45.68333	0.02748337
45.7	0.01459274
45.71667	0.0004325867
45.73333	-0.006891632
45.75	-0.01265335
45.76667	-0.01929398
45.78333	-0.02212601
45.8	-0.01685257
45.81667	-0.006891632
45.83333	0.00345993
45.85	0.009612274
45.86667	0.004924774
45.88333	-0.0103096
45.9	-0.02769241
45.91667	-0.0384346
45.93333	-0.04351272
45.95	-0.04517288
45.96667	-0.04331741
45.98333	-0.03872757
46	-0.03540726
46.01667	-0.03726273
46.03333	-0.04292679
46.05	-0.04878616
46.06667	-0.05230179
46.08333	-0.05659866
46.1	-0.06333695
46.11667	-0.06734085
46.13333	-0.06157913
46.15	-0.04966507
46.16667	-0.0415596
46.18333	-0.04214554
46.2	-0.04634476
46.21667	-0.04693069
46.23333	-0.04116898
46.25	-0.03472366
46.26667	-0.03638382
46.28333	-0.04575882
46.3	-0.05620804
46.31667	-0.06138382
46.33333	-0.06636429
46.35	-0.07486038
46.36667	-0.07984085
46.38333	-0.07368851
46.4	-0.05747757
46.41667	-0.04253616
46.43333	-0.03237991
46.45	-0.02857132
46.46667	-0.0359932
46.48333	-0.0493721
46.5	-0.05991898
46.51667	-0.06245804
46.53333	-0.06294632
46.55	-0.06509475
46.56667	-0.06704788
46.58333	-0.06675491
46.6	-0.06411819
46.61667	-0.06255569
46.63333	-0.06538773
46.65	-0.07134476
46.66667	-0.0750557
46.68333	-0.07114945
46.7	-0.06236038
46.71667	-0.05650101
46.73333	-0.06157913
46.75	-0.07759476
46.76667	-0.09107132
46.78333	-0.0962471
46.8	-0.09761429
46.81667	-0.09829788
46.83333	-0.09195022
46.85	-0.07486038
46.86667	-0.05796585
46.88333	-0.05454788
46.9	-0.05855179
46.91667	-0.05611038
46.93333	-0.04898148
46.95	-0.05005569
46.96667	-0.05904007
46.98333	-0.06538773
47	-0.06665726
47.01667	-0.069001
47.03333	-0.07085647
47.05	-0.06841507
47.06667	-0.06509475
47.08333	-0.06538773
47.1	-0.07163773
47.11667	-0.08052444
47.13333	-0.08726273
47.15	-0.08472367
47.16667	-0.07300492
47.18333	-0.06089554
47.2	-0.05308304
47.21667	-0.05122757
47.23333	-0.05503616
47.25	-0.06040726
47.26667	-0.06118851
47.28333	-0.05777054
47.3	-0.05396194
47.31667	-0.05288773
47.33333	-0.05640335
47.35	-0.06216507
47.36667	-0.06294632
47.38333	-0.05708694
47.4	-0.05454788
47.41667	-0.05972366
47.43333	-0.06529007
47.45	-0.06616898
47.46667	-0.0649971
47.48333	-0.06480179
47.5	-0.06265335
47.51667	-0.06040726
47.53333	-0.06157913
47.55	-0.06636429
47.56667	-0.07271194
47.58333	-0.07407913
47.6	-0.07075882
47.61667	-0.06509475
47.63333	-0.06011429
47.65	-0.05855179
47.66667	-0.05982132
47.68333	-0.06089554
47.7	-0.0594307
47.71667	-0.06040726
47.73333	-0.06861039
47.75	-0.08150101
47.76667	-0.09136429
47.78333	-0.09439163
47.8	-0.09224319
47.81667	-0.09097366
47.83333	-0.09234085
47.85	-0.09019241
47.86667	-0.07769241
47.88333	-0.06196976
47.9	-0.06157913
47.91667	-0.07818069
47.93333	-0.09331741
47.95	-0.09146194
47.96667	-0.07915726
47.98333	-0.06987991
48	-0.06753616
48.01667	-0.06616898
48.03333	-0.06040726
48.05	-0.05239945
48.06667	-0.04878616
48.08333	-0.05689163
48.1	-0.07515335
48.11667	-0.0924385
48.13333	-0.0978096
48.15	-0.08833694
48.16667	-0.07085647
48.18333	-0.05952835
48.2	-0.05913772
48.21667	-0.06011429
48.23333	-0.05464554
48.25	-0.04712601
48.26667	-0.04790726
48.28333	-0.05581741
48.3	-0.06099319
48.31667	-0.05991898
48.33333	-0.05972366
48.35	-0.06372757
48.36667	-0.0672432
48.38333	-0.06821976
48.4	-0.06939163
48.41667	-0.07515335
48.43333	-0.08091507
48.45	-0.08091507
48.46667	-0.0759346
48.48333	-0.07368851
48.5	-0.07915726
48.51667	-0.0853096
48.53333	-0.08696976
48.55	-0.08423539
48.56667	-0.07837601
48.58333	-0.06958695
48.6	-0.06362991
48.61667	-0.06470414
48.63333	-0.06743851
48.65	-0.06626663
48.66667	-0.06353226
48.68333	-0.06353226
48.7	-0.06441116
48.71667	-0.06206741
48.73333	-0.05708694
48.75	-0.05454788
48.76667	-0.05620804
48.78333	-0.06118851
48.8	-0.06919632
48.81667	-0.0774971
48.83333	-0.07779007
48.85	-0.06460647
48.86667	-0.04986038
48.88333	-0.04390335
48.9	-0.04595413
48.91667	-0.05005569
48.93333	-0.05825882
48.95	-0.07495804
48.96667	-0.09038772
48.98333	-0.09165726
49	-0.07847366
49.01667	-0.06206741
49.03333	-0.05210648
49.05	-0.04429398
49.06667	-0.03638382
49.08333	-0.03491898
49.1	-0.04527054
49.11667	-0.06099319
49.13333	-0.0696846
49.15	-0.0656807
49.16667	-0.05796585
49.18333	-0.06089554
49.2	-0.07896195
49.21667	-0.09566116
49.23333	-0.09741898
49.25	-0.08638382
49.26667	-0.07320023
49.28333	-0.06441116
49.3	-0.06021195
49.31667	-0.0587471
49.33333	-0.05864944
49.35	-0.06001663
49.36667	-0.05982132
49.38333	-0.05386429
49.4	-0.04693069
49.41667	-0.0484932
49.43333	-0.05913772
49.45	-0.06890335
49.46667	-0.07310257
49.48333	-0.07525101
49.5	-0.07583694
49.51667	-0.06948929
49.53333	-0.05825882
49.55	-0.04956741
49.56667	-0.04722366
49.58333	-0.0493721
49.6	-0.05288773
49.61667	-0.05552445
49.63333	-0.0594307
49.65	-0.06529007
49.66667	-0.07241897
49.68333	-0.0774971
49.7	-0.07984085
49.71667	-0.07603226
49.73333	-0.06421585
49.75	-0.05669632
49.76667	-0.06304397
49.78333	-0.07837601
49.8	-0.08540726
49.81667	-0.07954788
49.83333	-0.07095413
49.85	-0.06870804
49.86667	-0.07310257
49.88333	-0.0750557
49.9	-0.07320023
49.91667	-0.07066116
49.93333	-0.07007523
49.95	-0.07144241
49.96667	-0.07495804
49.98333	-0.0806221
50	-0.08706741
50.01667	-0.09009476
50.03333	-0.08345413
50.05	-0.06792679
50.06667	-0.05435257
50.08333	-0.0516182
50.1	-0.0594307
50.11667	-0.0696846
50.13333	-0.07368851
50.15	-0.06773148
50.16667	-0.06431351
50.18333	-0.06841507
50.2	-0.07544632
50.21667	-0.07788773
50.23333	-0.07935257
50.25	-0.07984085
50.26667	-0.07515335
50.28333	-0.06616898
50.3	-0.06011429
50.31667	-0.0594307
50.33333	-0.06323929
50.35	-0.0672432
50.36667	-0.07144241
50.38333	-0.07612991
50.4	-0.07964554
50.41667	-0.07798538
50.43333	-0.07368851
50.45	-0.07398148
50.46667	-0.08101273
50.48333	-0.0868721
50.5	-0.08306351
50.51667	-0.07085647
50.53333	-0.05816116
50.55	-0.05327835
50.56667	-0.05816116
50.58333	-0.06431351
50.6	-0.06079788
50.61667	-0.04839554
50.63333	-0.04097366
50.65	-0.04439163
50.66667	-0.05298538
50.68333	-0.06060257
50.7	-0.06382523
50.71667	-0.0634346
50.73333	-0.06353226
50.75	-0.06323929
50.76667	-0.05855179
50.78333	-0.05064163
50.8	-0.04702835
50.81667	-0.04907913
50.83333	-0.05073929
50.85	-0.04946976
50.86667	-0.04898148
50.88333	-0.05327835
50.9	-0.0571846
50.91667	-0.05386429
50.93333	-0.04595413
50.95	-0.03814163
50.96667	-0.03394241
50.98333	-0.03404007
51	-0.04185257
51.01667	-0.05747757
51.03333	-0.07310257
51.05	-0.07788773
51.06667	-0.06948929
51.08333	-0.05591507
51.1	-0.04771195
51.11667	-0.04605179
51.13333	-0.04673538
51.15	-0.04556351
51.16667	-0.04331741
51.18333	-0.03921585
51.2	-0.03823929
51.21667	-0.04517288
51.23333	-0.05366898
51.25	-0.05503616
51.26667	-0.05152054
51.28333	-0.05327835
51.3	-0.06040726
51.31667	-0.06226273
51.33333	-0.05474319
51.35	-0.04536819
51.36667	-0.04136429
51.38333	-0.04009476
51.4	-0.0384346
51.41667	-0.04195023
51.43333	-0.05493851
51.45	-0.06792679
51.46667	-0.07144241
51.48333	-0.06314163
51.5	-0.05366898
51.51667	-0.04839554
51.53333	-0.04859085
51.55	-0.05327835
51.56667	-0.05835648
51.58333	-0.06040726
51.6	-0.05737991
51.61667	-0.05171585
51.63333	-0.0484932
51.65	-0.04771195
51.66667	-0.05191116
51.68333	-0.06089554
51.7	-0.07193069
51.71667	-0.07769241
51.73333	-0.07534866
51.75	-0.06704788
51.76667	-0.06333695
51.78333	-0.06402054
51.8	-0.06304397
51.81667	-0.05611038
51.83333	-0.0462471
51.85	-0.04029007
51.86667	-0.03667679
51.88333	-0.03316116
51.9	-0.03296585
51.91667	-0.03726273
51.93333	-0.04614944
51.95	-0.05435257
51.96667	-0.05816116
51.98333	-0.05542679
52	-0.0509346
52.01667	-0.05523147
52.03333	-0.06275101
52.05	-0.06157913
52.06667	-0.0516182
52.08333	-0.04478226
52.1	-0.04683304
52.11667	-0.05103226
52.13333	-0.05122757
52.15	-0.0478096
52.16667	-0.0438057
52.18333	-0.04175491
52.2	-0.04566116
52.21667	-0.05386429
52.23333	-0.06177444
52.25	-0.06245804
52.26667	-0.05327835
52.28333	-0.04009476
52.3	-0.03257523
52.31667	-0.03589554
52.33333	-0.04429398
52.35	-0.05152054
52.36667	-0.05747757
52.38333	-0.06206741
52.4	-0.06314163
52.41667	-0.06079788
52.43333	-0.06001663
52.45	-0.06314163
52.46667	-0.0681221
52.48333	-0.07261429
52.5	-0.07329788
52.51667	-0.07310257
52.53333	-0.07417679
52.55	-0.07827835
52.56667	-0.08042679
52.58333	-0.0774971
52.6	-0.07271194
52.61667	-0.06987991
52.63333	-0.06841507
52.65	-0.06743851
52.66667	-0.07183304
52.68333	-0.07993851
52.7	-0.08345413
52.71667	-0.07925491
52.73333	-0.0712471
52.75	-0.06323929
52.76667	-0.05698929
52.78333	-0.05806351
52.8	-0.06890335
52.81667	-0.08257522
52.83333	-0.08931351
52.85	-0.08892288
52.86667	-0.08257522
52.88333	-0.06880569
52.9	-0.05532913
52.91667	-0.05181351
52.93333	-0.05650101
52.95	-0.06079788
52.96667	-0.05982132
52.98333	-0.05698929
53	-0.05894241
53.01667	-0.06802444
53.03333	-0.0750557
53.05	-0.07163773
53.06667	-0.06460647
53.08333	-0.0649971
53.1	-0.06909867
53.11667	-0.06665726
53.13333	-0.05806351
53.15	-0.05269241
53.16667	-0.04986038
53.18333	-0.0431221
53.2	-0.03491898
53.21667	-0.03501663
53.23333	-0.04439163
53.25	-0.05679398
53.26667	-0.06460647
53.28333	-0.06509475
53.3	-0.05679398
53.31667	-0.04575882
53.33333	-0.04234085
53.35	-0.04712601
53.36667	-0.05122757
53.38333	-0.05171585
53.4	-0.05620804
53.41667	-0.06665726
53.43333	-0.07144241
53.45	-0.06167679
53.46667	-0.05191116
53.48333	-0.0524971
53.5	-0.05816116
53.51667	-0.05952835
53.53333	-0.06021195
53.55	-0.06626663
53.56667	-0.07251664
53.58333	-0.07202835
53.6	-0.06626663
53.61667	-0.05845413
53.63333	-0.04800491
53.65	-0.04175491
53.66667	-0.04917679
53.68333	-0.06460647
53.7	-0.07378616
53.71667	-0.06831741
53.73333	-0.0571846
53.75	-0.04966507
53.76667	-0.05073929
53.78333	-0.0563057
53.8	-0.06040726
53.81667	-0.06226273
53.83333	-0.06402054
53.85	-0.06441116
53.86667	-0.06177444
53.88333	-0.05767288
53.9	-0.05357132
53.91667	-0.04946976
53.93333	-0.04693069
53.95	-0.04966507
53.96667	-0.05181351
53.98333	-0.04634476
54	-0.03696976
54.01667	-0.03189163
54.03333	-0.03120804
54.05	-0.03013382
54.06667	-0.02876663
54.08333	-0.03247757
54.1	-0.03736038
54.11667	-0.03745804
54.13333	-0.03472366
54.15	-0.03589554
54.16667	-0.04448929
54.18333	-0.05659866
54.2	-0.06802444
54.21667	-0.07573929
54.23333	-0.07632522
54.25	-0.07075882
54.26667	-0.06470414
54.28333	-0.06206741
54.3	-0.06118851
54.31667	-0.0618721
54.33333	-0.06509475
54.35	-0.06714554
54.36667	-0.06353226
54.38333	-0.05864944
54.4	-0.05884476
54.41667	-0.06206741
54.43333	-0.0587471
54.45	-0.04761429
54.46667	-0.0353096
54.48333	-0.03198929
54.5	-0.0353096
54.51667	-0.03677445
54.53333	-0.03325882
54.55	-0.03306351
54.56667	-0.03872757
54.58333	-0.04527054
54.6	-0.04741897
54.61667	-0.04741897
54.63333	-0.05103226
54.65	-0.05796585
54.66667	-0.06284866
54.68333	-0.06284866
54.7	-0.06148148
54.71667	-0.06314163
54.73333	-0.06870804
54.75	-0.07534866
54.76667	-0.07788773
54.78333	-0.07515335
54.8	-0.06675491
54.81667	-0.0571846
54.83333	-0.05005569
54.85	-0.04868851
54.86667	-0.05366898
54.88333	-0.05806351
54.9	-0.05757523
54.91667	-0.05698929
54.93333	-0.06304397
54.95	-0.07261429
54.96667	-0.0750557
54.98333	-0.06636429
55	-0.05357132
