"SampleName"	"6. PC-12 Atp2b2 shRNA C"
"System Name"	"Alliance 2"
"Sample Set Name"	"DTtV_15052025 GSL new HPLC"
"Date Acquired"	"5/15/2025 7:27:34 PM BST"
"Sample Set Start Date"	"5/15/2025 2:04:31 PM BST"
0	0.0001457214
0.01666667	0.0005363465
0.03333333	0.002489471
0.05	0.01284103
0.06666667	0.03539963
0.08333333	0.06420822
0.1	0.08940353
0.1166667	0.1027824
0.1333333	0.1031731
0.15	0.09467697
0.1666667	0.08666916
0.1833333	0.08832932
0.2	0.09848557
0.2166667	0.110302
0.2333333	0.1177238
0.25	0.1215324
0.2666667	0.1221184
0.2833333	0.1182121
0.3	0.1126457
0.3166667	0.110009
0.3333333	0.1084465
0.35	0.1070793
0.3666667	0.1074699
0.3833333	0.1132317
0.4	0.1170403
0.4166667	0.1133293
0.4333333	0.1062981
0.45	0.1033684
0.4666667	0.1022942
0.4833333	0.1010246
0.5	0.1001457
0.5166667	0.1010246
0.5333333	0.09975509
0.55	0.09936447
0.5666667	0.1032707
0.5833333	0.1072746
0.6	0.1046379
0.6166667	0.09721603
0.6333333	0.09243087
0.65	0.09321213
0.6666667	0.09311447
0.6833333	0.08793869
0.7	0.08237229
0.7166667	0.081884
0.7333333	0.08520432
0.75	0.0896965
0.7666667	0.09330978
0.7833333	0.09340744
0.8	0.0896965
0.8166667	0.0856926
0.8333333	0.08559494
0.85	0.0865715
0.8666667	0.08286057
0.8833333	0.07309494
0.9	0.060009
0.9166667	0.05395431
0.9333333	0.05932541
0.95	0.07309494
0.9666667	0.08373947
0.9833333	0.08539963
1	0.08276291
1.016667	0.0810051
1.033333	0.07914963
1.05	0.07700119
1.066667	0.07709885
1.083333	0.08120041
1.1	0.08647384
1.116667	0.0872551
1.133333	0.08452072
1.15	0.08041916
1.166667	0.07543869
1.183333	0.07065354
1.2	0.06830978
1.216667	0.07016525
1.233333	0.07309494
1.25	0.0716301
1.266667	0.06508712
1.283333	0.06059494
1.3	0.06635666
1.316667	0.08022384
1.333333	0.09077072
1.35	0.09213791
1.366667	0.08618088
1.383333	0.07621994
1.4	0.06713791
1.416667	0.06479416
1.433333	0.06342697
1.45	0.05190353
1.466667	0.03491135
1.483333	0.02895432
1.5	0.03998947
1.516667	0.05424728
1.533333	0.05893479
1.55	0.05112229
1.566667	0.03354416
1.583333	0.01391525
1.6	0.004637909
1.616667	0.007372284
1.633333	0.01528244
1.65	0.02309494
1.666667	0.03002853
1.683333	0.03588791
1.7	0.04536057
1.716667	0.06245041
1.733333	0.08432541
1.75	0.1032707
1.766667	0.1202629
1.783333	0.1369621
1.8	0.1519035
1.816667	0.1583488
1.833333	0.1550285
1.85	0.1455559
1.866667	0.1369621
1.883333	0.1277824
1.9	0.1137199
1.916667	0.09448166
1.933333	0.0794426
1.95	0.07543869
1.966667	0.08110275
1.983333	0.08803634
2	0.09213791
2.016667	0.09272385
2.033333	0.08920822
2.05	0.08432541
2.066667	0.08325119
2.083333	0.08315353
2.1	0.07700119
2.116667	0.06391525
2.133333	0.053759
2.15	0.05024338
2.166667	0.04789963
2.183333	0.04057541
2.2	0.02426681
2.216667	0.004735565
2.233333	-0.007276154
2.25	-0.00815506
2.266667	-0.002393341
2.283333	0.003856659
2.3	0.006591034
2.316667	0.003173065
2.333333	-0.005908966
2.35	-0.01674881
2.366667	-0.02622147
2.383333	-0.03540115
2.4	-0.04301834
2.416667	-0.04663162
2.433333	-0.04809647
2.45	-0.05151444
2.466667	-0.05659256
2.483333	-0.05854569
2.5	-0.05659256
2.516667	-0.05669022
2.533333	-0.0611824
2.55	-0.06567459
2.566667	-0.071241
2.583333	-0.07719803
2.6	-0.07963943
2.616667	-0.07544021
2.633333	-0.0627449
2.65	-0.03862381
2.666667	-0.001416779
2.683333	0.04731369
2.7	0.1054192
2.716667	0.1795402
2.733333	0.2851067
2.75	0.4344231
2.766667	0.6246575
2.783333	0.8337395
2.8	1.039696
2.816667	1.233446
2.833333	1.424267
2.85	1.628271
2.866667	1.847314
2.883333	2.072021
2.9	2.29165
2.916667	2.500146
2.933333	2.69038
2.95	2.853466
2.966667	2.990771
2.983333	3.113525
3	3.229931
3.016667	3.344482
3.033333	3.464599
3.05	3.599658
3.066667	3.757763
3.083333	3.946337
3.1	4.165966
3.116667	4.398583
3.133333	4.618798
3.15	4.810986
3.166667	4.971826
3.183333	5.098779
3.2	5.193994
3.216667	5.274657
3.233333	5.370654
3.25	5.515673
3.266667	5.760595
3.283333	6.218505
3.3	7.094384
3.316667	8.615576
3.333333	10.85513
3.35	13.5857
3.366667	16.33433
3.383333	18.61841
3.4	20.15776
3.416667	20.92495
3.433333	21.16616
3.45	21.77476
3.466667	25.39732
3.483333	37.67163
3.5	66.34264
3.516667	116.7296
3.533333	186.6637
3.55	266.6678
3.566667	345.7839
3.583333	416.5858
3.6	474.7333
3.616667	515.9022
3.633333	535.2276
3.65	529.9086
3.666667	501.8348
3.683333	457.5461
3.7	405.6295
3.716667	353.6278
3.733333	306.3254
3.75	265.7299
3.766667	232.0877
3.783333	205.1713
3.8	185.1713
3.816667	172.8737
3.833333	169.2483
3.85	174.8192
3.866667	188.8584
3.883333	207.7163
3.9	223.5119
3.916667	226.8644
3.933333	212.709
3.95	183.0623
3.966667	144.8436
3.983333	106.3074
4	74.25405
4.016667	51.69936
4.033333	37.50053
4.05	28.81343
4.066667	23.38257
4.083333	19.85484
4.1	17.38228
4.116667	15.46626
4.133333	13.90239
4.15	12.65269
4.166667	11.70757
4.183333	11.02935
4.2	10.55796
4.216667	10.22202
4.233333	9.961573
4.25	9.737452
4.266667	9.528858
4.283333	9.335011
4.3	9.173585
4.316667	9.062549
4.333333	9.020068
4.35	9.073291
4.366667	9.244581
4.383333	9.525245
4.4	9.871046
4.416667	10.22788
4.433333	10.54048
4.45	10.748
4.466667	10.7896
4.483333	10.6311
4.5	10.28648
4.516667	9.810108
4.533333	9.262842
4.55	8.689112
4.566667	8.110987
4.583333	7.540381
4.6	6.992138
4.616667	6.487841
4.633333	6.047216
4.65	5.684521
4.666667	5.412255
4.683333	5.251708
4.7	5.231493
4.716667	5.348095
4.733333	5.534618
4.75	5.69497
4.766667	5.764794
4.783333	5.741161
4.8	5.657861
4.816667	5.552197
4.833333	5.455029
4.85	5.380322
4.866667	5.320458
4.883333	5.259716
4.9	5.1979
4.916667	5.158642
4.933333	5.167333
4.95	5.238818
4.966667	5.366942
4.983333	5.518603
5	5.642626
5.016667	5.699755
5.033333	5.679736
5.05	5.603368
5.066667	5.50747
5.083333	5.426513
5.1	5.376904
5.116667	5.355224
5.133333	5.345946
5.15	5.326903
5.166667	5.284814
5.183333	5.222802
5.2	5.135204
5.216667	5.002978
5.233333	4.819872
5.25	4.6104
5.266667	4.40415
5.283333	4.215282
5.3	4.043505
5.316667	3.885497
5.333333	3.737157
5.35	3.596337
5.366667	3.469482
5.383333	3.365771
5.4	3.288622
5.416667	3.240868
5.433333	3.228466
5.45	3.258153
5.466667	3.320458
5.483333	3.391161
5.5	3.439208
5.516667	3.448486
5.533333	3.422021
5.55	3.384423
5.566667	3.369872
5.583333	3.414989
5.6	3.542529
5.616667	3.744482
5.633333	3.978954
5.65	4.189696
5.666667	4.324755
5.683333	4.35747
5.7	4.294775
5.716667	4.17661
5.733333	4.054247
5.75	3.961669
5.766667	3.90913
5.783333	3.895068
5.8	3.914892
5.816667	3.957177
5.833333	4.011083
5.85	4.067138
5.866667	4.120458
5.883333	4.164403
5.9	4.188525
5.916667	4.187841
5.933333	4.160693
5.95	4.106884
5.966667	4.022119
5.983333	3.898388
6	3.736962
6.016667	3.554052
6.033333	3.373193
6.05	3.209423
6.066667	3.063134
6.083333	2.929638
6.1	2.807665
6.116667	2.702489
6.133333	2.622118
6.15	2.566845
6.166667	2.528857
6.183333	2.497314
6.2	2.462646
6.216667	2.421825
6.233333	2.377392
6.25	2.332958
6.266667	2.285107
6.283333	2.228271
6.3	2.167333
6.316667	2.11665
6.333333	2.079345
6.35	2.041161
6.366667	1.993896
6.383333	1.94956
6.4	1.917919
6.416667	1.894677
6.433333	1.875243
6.45	1.860693
6.466667	1.850439
6.483333	1.847704
6.5	1.85581
6.516667	1.873193
6.533333	1.893212
6.55	1.914111
6.566667	1.935595
6.583333	1.952685
6.6	1.955907
6.616667	1.943798
6.633333	1.923583
6.65	1.90288
6.666667	1.875927
6.683333	1.832958
6.7	1.776904
6.716667	1.723583
6.733333	1.67954
6.75	1.633739
6.766667	1.580517
6.783333	1.529638
6.8	1.488915
6.816667	1.45874
6.833333	1.442431
6.85	1.444579
6.866667	1.461571
6.883333	1.489599
6.9	1.529345
6.916667	1.585986
6.933333	1.657763
6.95	1.72915
6.966667	1.785693
6.983333	1.822411
7	1.844482
7.016667	1.850732
7.033333	1.832275
7.05	1.793798
7.066667	1.752782
7.083333	1.720361
7.1	1.689697
7.116667	1.652001
7.133333	1.610986
7.15	1.583447
7.166667	1.577587
7.183333	1.580322
7.2	1.572509
7.216667	1.550146
7.233333	1.528759
7.25	1.512841
7.266667	1.498681
7.283333	1.482861
7.3	1.471044
7.316667	1.467724
7.333333	1.474267
7.35	1.493212
7.366667	1.530712
7.383333	1.597802
7.4	1.699169
7.416667	1.825634
7.433333	1.956103
7.45	2.068896
7.466667	2.143505
7.483333	2.167333
7.5	2.139306
7.516667	2.069286
7.533333	1.971923
7.55	1.8604
7.566667	1.743212
7.583333	1.62915
7.6	1.530419
7.616667	1.452685
7.633333	1.391943
7.65	1.340087
7.666667	1.295946
7.683333	1.260986
7.7	1.232958
7.716667	1.210888
7.733333	1.196728
7.75	1.187548
7.766667	1.181298
7.783333	1.176708
7.8	1.178271
7.816667	1.184423
7.833333	1.18872
7.85	1.1854
7.866667	1.174364
7.883333	1.16206
7.9	1.157372
7.916667	1.165868
7.933333	1.181786
7.95	1.193798
7.966667	1.193603
7.983333	1.190575
8	1.199364
8.016667	1.214208
8.033333	1.227489
8.05	1.24165
8.066667	1.263329
8.083333	1.292724
8.1	1.318017
8.116667	1.33579
8.133333	1.354052
8.15	1.382568
8.166667	1.425732
8.183333	1.4854
8.2	1.561962
8.216667	1.647509
8.233333	1.740087
8.25	1.846044
8.266667	1.968407
8.283333	2.096435
8.3	2.214208
8.316667	2.310302
8.333333	2.375048
8.35	2.400146
8.366667	2.382568
8.383333	2.322997
8.4	2.224755
8.416667	2.101318
8.433333	1.970947
8.45	1.843505
8.466667	1.719482
8.483333	1.604247
8.5	1.508154
8.516667	1.431396
8.533333	1.36372
8.55	1.298779
8.566667	1.239697
8.583333	1.190087
8.6	1.146923
8.616667	1.107275
8.633333	1.073193
8.65	1.048876
8.666667	1.034521
8.683333	1.022997
8.7	1.008349
8.716667	0.991552
8.733333	0.9806145
8.75	0.9833488
8.766667	0.9917473
8.783333	0.9952629
8.8	0.9937004
8.816667	0.9953606
8.833333	1.004931
8.85	1.019189
8.866667	1.02954
8.883333	1.029736
8.9	1.029833
8.916667	1.042236
8.933333	1.064501
8.95	1.087646
8.966667	1.112157
8.983333	1.143896
9	1.183447
9.016667	1.230614
9.033333	1.285107
9.05	1.346044
9.066667	1.41704
9.083333	1.509032
9.1	1.625829
9.116667	1.753173
9.133333	1.874853
9.15	1.984814
9.166667	2.082568
9.183333	2.16372
9.2	2.217236
9.216667	2.234423
9.233333	2.209325
9.25	2.144872
9.266667	2.049267
9.283333	1.936962
9.3	1.820263
9.316667	1.708153
9.333333	1.604931
9.35	1.510888
9.366667	1.423486
9.383333	1.34165
9.4	1.266064
9.416667	1.1937
9.433333	1.1187
9.45	1.044384
9.466667	0.9803215
9.483333	0.9330559
9.5	0.897509
9.516667	0.86997
9.533333	0.847509
9.55	0.8283684
9.566667	0.8059074
9.583333	0.7820793
9.6	0.7646965
9.616667	0.7615715
9.633333	0.7694817
9.65	0.7778801
9.666667	0.778759
9.683333	0.7777824
9.7	0.7797356
9.716667	0.7861809
9.733333	0.8004387
9.75	0.825927
9.766667	0.8563957
9.783333	0.8829582
9.8	0.9078606
9.816667	0.9377434
9.833333	0.9746574
9.85	1.015282
9.866667	1.054345
9.883333	1.086083
9.9	1.099853
9.916667	1.098193
9.933333	1.092626
9.95	1.085107
9.966667	1.060107
9.983333	1.01245
10	0.9535637
10.01667	0.8968254
10.03333	0.841259
10.05	0.7840325
10.06667	0.7277824
10.08333	0.6772941
10.1	0.6349114
10.11667	0.6011223
10.13333	0.5758293
10.15	0.5563957
10.16667	0.5407707
10.18333	0.5248528
10.2	0.5079582
10.21667	0.4928215
10.23333	0.4812004
10.25	0.4768059
10.26667	0.4776848
10.28333	0.4797356
10.3	0.4793449
10.31667	0.4758293
10.33333	0.4719231
10.35	0.4714348
10.36667	0.4747551
10.38333	0.4758293
10.4	0.4737785
10.41667	0.4710442
10.43333	0.4685051
10.45	0.4639153
10.46667	0.4545403
10.48333	0.4458489
10.5	0.4430168
10.51667	0.4445793
10.53333	0.4436027
10.55	0.4361809
10.56667	0.4264153
10.58333	0.4194817
10.6	0.422802
10.61667	0.4353996
10.63333	0.4477043
10.65	0.4483879
10.66667	0.4394035
10.68333	0.4294426
10.7	0.422509
10.71667	0.4179192
10.73333	0.4145989
10.75	0.4130363
10.76667	0.4105949
10.78333	0.4056145
10.8	0.3995598
10.81667	0.3964348
10.83333	0.3997551
10.85	0.4055168
10.86667	0.4092278
10.88333	0.4076653
10.9	0.4032707
10.91667	0.3989739
10.93333	0.3968254
10.95	0.3936028
10.96667	0.3902825
10.98333	0.3895988
11	0.3936028
11.01667	0.4030754
11.03333	0.4121574
11.05	0.4143059
11.06667	0.4104973
11.08333	0.4081535
11.1	0.4119621
11.11667	0.416552
11.13333	0.4169426
11.15	0.4148918
11.16667	0.4105949
11.18333	0.4067864
11.2	0.4069816
11.21667	0.4120598
11.23333	0.416552
11.25	0.4129387
11.26667	0.4066887
11.28333	0.4096184
11.3	0.4241692
11.31667	0.4379387
11.33333	0.4388176
11.35	0.4262199
11.36667	0.4120598
11.38333	0.4073723
11.4	0.4152824
11.41667	0.4288567
11.43333	0.4413567
11.45	0.4481926
11.46667	0.4478996
11.48333	0.4434074
11.5	0.438134
11.51667	0.4356926
11.53333	0.434716
11.55	0.4325676
11.56667	0.4274895
11.58333	0.4250481
11.6	0.4320793
11.61667	0.4460441
11.63333	0.4567863
11.65	0.4657707
11.66667	0.4793449
11.68333	0.4939934
11.7	0.4999504
11.71667	0.5041496
11.73333	0.5214348
11.75	0.5527824
11.76667	0.5862786
11.78333	0.6187004
11.8	0.6530754
11.81667	0.685009
11.83333	0.7101067
11.85	0.7308098
11.86667	0.7536613
11.88333	0.7802238
11.9	0.8109856
11.91667	0.8460442
11.93333	0.8810051
11.95	0.9116691
11.96667	0.9307121
11.98333	0.9330559
12	0.9214348
12.01667	0.9050285
12.03333	0.8905754
12.05	0.8792473
12.06667	0.866259
12.08333	0.850341
12.1	0.8359855
12.11667	0.8240715
12.13333	0.8102043
12.15	0.7953606
12.16667	0.7786614
12.18333	0.7602043
12.2	0.7404777
12.21667	0.7208489
12.23333	0.706591
12.25	0.6978996
12.26667	0.6942863
12.28333	0.6967278
12.3	0.7017082
12.31667	0.700341
12.33333	0.6887199
12.35	0.6778801
12.36667	0.675634
12.38333	0.6769035
12.4	0.6726066
12.41667	0.662841
12.43333	0.6532707
12.45	0.6481926
12.46667	0.6513176
12.48333	0.6573723
12.5	0.6618645
12.51667	0.666259
12.53333	0.6697747
12.55	0.6703606
12.56667	0.6672356
12.58333	0.6683098
12.6	0.6774895
12.61667	0.6885246
12.63333	0.6952629
12.65	0.6933098
12.66667	0.6831535
12.68333	0.6670402
12.7	0.6521965
12.71667	0.6473137
12.73333	0.6529778
12.75	0.6615715
12.76667	0.6728996
12.78333	0.6840324
12.8	0.6858879
12.81667	0.6792473
12.83333	0.6755363
12.85	0.6751457
12.86667	0.6684074
12.88333	0.6543449
12.9	0.6454582
12.91667	0.6470207
12.93333	0.6511223
12.95	0.6499504
12.96667	0.644677
12.98333	0.6399895
13	0.6417473
13.01667	0.6501457
13.03333	0.6595207
13.05	0.6674309
13.06667	0.678466
13.08333	0.6929191
13.1	0.7032707
13.11667	0.7047356
13.13333	0.7008293
13.15	0.7011223
13.16667	0.71372
13.18333	0.7385246
13.2	0.7651848
13.21667	0.7892082
13.23333	0.8126457
13.25	0.8380364
13.26667	0.8592278
13.28333	0.8740715
13.3	0.888427
13.31667	0.9118645
13.33333	0.9427239
13.35	0.972509
13.36667	0.9962395
13.38333	1.011572
13.4	1.018114
13.41667	1.017724
13.43333	1.016064
13.45	1.017431
13.46667	1.017919
13.48333	1.015673
13.5	1.01245
13.51667	1.005517
13.53333	0.990966
13.55	0.9738762
13.56667	0.9656731
13.58333	0.9683098
13.6	0.9726067
13.61667	0.9691887
13.63333	0.9623528
13.65	0.9636223
13.66667	0.9771965
13.68333	0.9967278
13.7	1.010497
13.71667	1.015575
13.73333	1.015087
13.75	1.014989
13.76667	1.013036
13.78333	1.006786
13.8	0.9983879
13.81667	0.990966
13.83333	0.9798332
13.85	0.9618645
13.86667	0.9403801
13.88333	0.921923
13.9	0.9138176
13.91667	0.9180168
13.93333	0.9261223
13.95	0.9267082
13.96667	0.9185051
13.98333	0.9105949
14	0.9099113
14.01667	0.9160637
14.03333	0.9344231
14.05	0.9689934
14.06667	1.019189
14.08333	1.083837
14.1	1.164501
14.11667	1.263134
14.13333	1.382275
14.15	1.52329
14.16667	1.683447
14.18333	1.857275
14.2	2.042821
14.21667	2.235888
14.23333	2.42622
14.25	2.605224
14.26667	2.771044
14.28333	2.919775
14.3	3.041552
14.31667	3.126806
14.33333	3.170947
14.35	3.175341
14.36667	3.149071
14.38333	3.104443
14.4	3.045751
14.41667	2.966845
14.43333	2.8604
14.45	2.728076
14.46667	2.583056
14.48333	2.444189
14.5	2.318603
14.51667	2.19829
14.53333	2.072411
14.55	1.943407
14.56667	1.822118
14.58333	1.717919
14.6	1.634423
14.61667	1.567626
14.63333	1.507372
14.65	1.444872
14.66667	1.378954
14.68333	1.31372
14.7	1.255615
14.71667	1.209325
14.73333	1.174072
14.75	1.147118
14.76667	1.119482
14.78333	1.085107
14.8	1.050146
14.81667	1.030712
14.83333	1.02915
14.85	1.032177
14.86667	1.025927
14.88333	1.013134
14.9	1.004247
14.91667	1.002782
14.93333	1.000927
14.95	0.9917473
14.96667	0.9791496
14.98333	0.9752434
15	0.9788567
15.01667	0.9807121
15.03333	0.9754387
15.05	0.966259
15.06667	0.9581535
15.08333	0.9491692
15.1	0.9391106
15.11667	0.9353997
15.13333	0.9379387
15.15	0.9383293
15.16667	0.931884
15.18333	0.9258293
15.2	0.9296379
15.21667	0.9439934
15.23333	0.9587395
15.25	0.9627434
15.26667	0.9560051
15.28333	0.9487785
15.3	0.9502434
15.31667	0.9570793
15.33333	0.9601067
15.35	0.9578606
15.36667	0.9535637
15.38333	0.9519035
15.4	0.9543449
15.41667	0.9567863
15.43333	0.9542473
15.45	0.9481926
15.46667	0.9437981
15.48333	0.9442863
15.5	0.9521965
15.51667	0.9657707
15.53333	0.9729973
15.55	0.9653801
15.56667	0.9516106
15.58333	0.9492668
15.6	0.9609855
15.61667	0.9770988
15.63333	0.9882317
15.65	0.9927238
15.66667	0.9986809
15.68333	1.006005
15.7	1.010009
15.71667	1.008935
15.73333	1.003857
15.75	0.9994621
15.76667	0.9994621
15.78333	1.004443
15.8	1.011474
15.81667	1.017626
15.83333	1.020947
15.85	1.024755
15.86667	1.029247
15.88333	1.032177
15.9	1.029345
15.91667	1.023974
15.93333	1.025536
15.95	1.036767
15.96667	1.051513
15.98333	1.058251
16	1.053368
16.01667	1.046142
16.03333	1.048486
16.05	1.063329
16.06667	1.083544
16.08333	1.102489
16.1	1.124169
16.11667	1.157079
16.13333	1.20288
16.15	1.256689
16.16667	1.326025
16.18333	1.432665
16.2	1.592138
16.21667	1.80249
16.23333	2.057568
16.25	2.366064
16.26667	2.742138
16.28333	3.196435
16.3	3.72622
16.31667	4.32163
16.33333	4.967333
16.35	5.64829
16.36667	6.354638
16.38333	7.074755
16.4	7.782763
16.41667	8.444776
16.43333	9.034131
16.45	9.535791
16.46667	9.939698
16.48333	10.24185
16.5	10.44116
16.51667	10.54624
16.53333	10.58198
16.55	10.57827
16.56667	10.56138
16.58333	10.55171
16.6	10.57378
16.61667	10.65991
16.63333	10.83364
16.65	11.10142
16.66667	11.4522
16.68333	11.86499
16.7	12.31899
16.71667	12.79019
16.73333	13.24819
16.75	13.65308
16.76667	13.96157
16.78333	14.14321
16.8	14.18931
16.81667	14.10347
16.83333	13.89732
16.85	13.58989
16.86667	13.20318
16.88333	12.76099
16.9	12.28882
16.91667	11.81509
16.93333	11.36275
16.95	10.94497
16.96667	10.5731
16.98333	10.24868
17	9.961084
17.01667	9.699561
17.03333	9.452003
17.05	9.201124
17.06667	8.932178
17.08333	8.640674
17.1	8.327295
17.11667	7.982471
17.13333	7.598486
17.15	7.176806
17.16667	6.731884
17.18333	6.28247
17.2	5.841455
17.21667	5.413622
17.23333	5.000829
17.25	4.607275
17.26667	4.240185
17.28333	3.907177
17.3	3.607079
17.31667	3.339013
17.33333	3.103759
17.35	2.898388
17.36667	2.719384
17.38333	2.558935
17.4	2.40913
17.41667	2.26538
17.43333	2.134423
17.45	2.02163
17.46667	1.923583
17.48333	1.839989
17.5	1.775146
17.51667	1.724169
17.53333	1.67495
17.55	1.627001
17.56667	1.588329
17.58333	1.561962
17.6	1.537939
17.61667	1.503564
17.63333	1.460497
17.65	1.421728
17.66667	1.397607
17.68333	1.387743
17.7	1.389306
17.71667	1.400048
17.73333	1.414013
17.75	1.42456
17.76667	1.432958
17.78333	1.446142
17.8	1.469872
17.81667	1.511669
17.83333	1.570556
17.85	1.637548
17.86667	1.706884
17.88333	1.77915
17.9	1.848486
17.91667	1.90913
17.93333	1.961279
17.95	2.011083
17.96667	2.062353
17.98333	2.112157
18	2.153661
18.01667	2.178466
18.03333	2.181591
18.05	2.160888
18.06667	2.122314
18.08333	2.084423
18.1	2.058935
18.11667	2.037158
18.13333	1.998388
18.15	1.942626
18.16667	1.889599
18.18333	1.851122
18.2	1.818896
18.21667	1.780517
18.23333	1.73745
18.25	1.696923
18.26667	1.663232
18.28333	1.633154
18.3	1.603759
18.31667	1.57495
18.33333	1.548681
18.35	1.5312
18.36667	1.526025
18.38333	1.526904
18.4	1.522118
18.41667	1.506884
18.43333	1.488915
18.45	1.48247
18.46667	1.490087
18.48333	1.499755
18.5	1.506884
18.51667	1.512157
18.53333	1.514306
18.55	1.509911
18.56667	1.503075
18.58333	1.501318
18.6	1.507665
18.61667	1.5187
18.63333	1.527782
18.65	1.528857
18.66667	1.523974
18.68333	1.518114
18.7	1.513525
18.71667	1.511962
18.73333	1.515282
18.75	1.520751
18.76667	1.526806
18.78333	1.530419
18.8	1.529638
18.81667	1.51831
18.83333	1.498876
18.85	1.480126
18.86667	1.470751
18.88333	1.468407
18.9	1.468603
18.91667	1.469189
18.93333	1.466552
18.95	1.45747
18.96667	1.445361
18.98333	1.438427
19	1.440185
19.01667	1.446044
19.03333	1.452587
19.05	1.459911
19.06667	1.464306
19.08333	1.463622
19.1	1.461571
19.11667	1.463036
19.13333	1.467236
19.15	1.472216
19.16667	1.475439
19.18333	1.474462
19.2	1.473388
19.21667	1.4729
19.23333	1.472509
19.25	1.472997
19.26667	1.474853
19.28333	1.473583
19.3	1.464501
19.31667	1.45454
19.33333	1.452099
19.35	1.457861
19.36667	1.464306
19.38333	1.463329
19.4	1.456786
19.41667	1.451806
19.43333	1.450634
19.45	1.448779
19.46667	1.445263
19.48333	1.444189
19.5	1.450829
19.51667	1.467333
19.53333	1.488036
19.55	1.501806
19.56667	1.509618
19.58333	1.522704
19.6	1.544872
19.61667	1.56831
19.63333	1.585986
19.65	1.60581
19.66667	1.637548
19.68333	1.672997
19.7	1.696239
19.71667	1.702294
19.73333	1.701513
19.75	1.701904
19.76667	1.705712
19.78333	1.714013
19.8	1.726318
19.81667	1.741064
19.83333	1.755419
19.85	1.770849
19.86667	1.790771
19.88333	1.818212
19.9	1.855419
19.91667	1.898974
19.93333	1.944775
19.95	1.993896
19.96667	2.04995
19.98333	2.1062
20	2.154833
20.01667	2.198583
20.03333	2.2479
20.05	2.302392
20.06667	2.346337
20.08333	2.368017
20.1	2.367821
20.11667	2.359618
20.13333	2.351806
20.15	2.341357
20.16667	2.318017
20.18333	2.280614
20.2	2.237939
20.21667	2.197997
20.23333	2.163622
20.25	2.133544
20.26667	2.106396
20.28333	2.078759
20.3	2.047509
20.31667	2.014111
20.33333	1.986083
20.35	1.970556
20.36667	1.968407
20.38333	1.969384
20.4	1.966064
20.41667	1.959716
20.43333	1.954931
20.45	1.951318
20.46667	1.946923
20.48333	1.941845
20.5	1.939892
20.51667	1.939989
20.53333	1.940868
20.55	1.946239
20.56667	1.955907
20.58333	1.966747
20.6	1.980126
20.61667	2.009032
20.63333	2.05747
20.65	2.116357
20.66667	2.186572
20.68333	2.28579
20.7	2.428564
20.71667	2.611767
20.73333	2.822314
20.75	3.05415
20.76667	3.311474
20.78333	3.600439
20.8	3.914013
20.81667	4.23413
20.83333	4.544286
20.85	4.833056
20.86667	5.095849
20.88333	5.32456
20.9	5.502587
20.91667	5.61704
20.93333	5.670068
20.95	5.673583
20.96667	5.633935
20.98333	5.550341
21	5.434911
21.01667	5.306787
21.03333	5.187255
21.05	5.090966
21.06667	5.020263
21.08333	4.973583
21.1	4.95122
21.11667	4.96079
21.13333	5.011474
21.15	5.101513
21.16667	5.220556
21.18333	5.360595
21.2	5.516943
21.21667	5.675243
21.23333	5.812158
21.25	5.910985
21.26667	5.975048
21.28333	6.015673
21.3	6.031103
21.31667	6.009326
21.33333	5.951903
21.35	5.872021
21.36667	5.776025
21.38333	5.659814
21.4	5.527685
21.41667	5.399364
21.43333	5.291454
21.45	5.204638
21.46667	5.133251
21.48333	5.076025
21.5	5.030028
21.51667	4.987548
21.53333	4.94331
21.55	4.899364
21.56667	4.85288
21.58333	4.790966
21.6	4.701025
21.61667	4.585302
21.63333	4.454833
21.65	4.31831
21.66667	4.177392
21.68333	4.032177
21.7	3.882861
21.71667	3.733739
21.73333	3.589306
21.75	3.451415
21.76667	3.322118
21.78333	3.202392
21.8	3.094384
21.81667	2.998779
21.83333	2.919775
21.85	2.853271
21.86667	2.786278
21.88333	2.711864
21.9	2.633056
21.91667	2.555224
21.93333	2.484032
21.95	2.42622
21.96667	2.383056
21.98333	2.346337
22	2.307568
22.01667	2.266357
22.03333	2.22622
22.05	2.192138
22.06667	2.162939
22.08333	2.136083
22.1	2.11831
22.11667	2.111962
22.13333	2.111279
22.15	2.108154
22.16667	2.105126
22.18333	2.106982
22.2	2.112743
22.21667	2.118505
22.23333	2.128661
22.25	2.144677
22.26667	2.164892
22.28333	2.18706
22.3	2.212841
22.31667	2.233447
22.33333	2.242236
22.35	2.242626
22.36667	2.245263
22.38333	2.254247
22.4	2.266454
22.41667	2.278954
22.43333	2.288134
22.45	2.290282
22.46667	2.28247
22.48333	2.267822
22.5	2.257568
22.51667	2.250634
22.53333	2.236962
22.55	2.210302
22.56667	2.178759
22.58333	2.15288
22.6	2.133837
22.61667	2.120556
22.63333	2.110009
22.65	2.101415
22.66667	2.094775
22.68333	2.088232
22.7	2.081396
22.71667	2.072607
22.73333	2.064306
22.75	2.062646
22.76667	2.069482
22.78333	2.084325
22.8	2.112353
22.81667	2.157763
22.83333	2.216943
22.85	2.274462
22.86667	2.322802
22.88333	2.374755
22.9	2.443017
22.91667	2.527489
22.93333	2.626025
22.95	2.745458
22.96667	2.900048
22.98333	3.102196
23	3.361669
23.01667	3.691552
23.03333	4.116161
23.05	4.674853
23.06667	5.400634
23.08333	6.307275
23.1	7.395166
23.11667	8.668213
23.13333	10.12505
23.15	11.74849
23.16667	13.50425
23.18333	15.34478
23.2	17.2021
23.21667	18.99898
23.23333	20.66011
23.25	22.1187
23.26667	23.30728
23.28333	24.17466
23.3	24.69419
23.31667	24.86304
23.33333	24.69136
23.35	24.19546
23.36667	23.41421
23.38333	22.40972
23.4	21.24771
23.41667	19.98052
23.43333	18.65171
23.45	17.30347
23.46667	15.97144
23.48333	14.67954
23.5	13.4478
23.51667	12.29976
23.53333	11.24741
23.55	10.28696
23.56667	9.410401
23.58333	8.612744
23.6	7.887647
23.61667	7.227783
23.63333	6.633056
23.65	6.108837
23.66667	5.652001
23.68333	5.255224
23.7	4.904931
23.71667	4.58911
23.73333	4.305907
23.75	4.064404
23.76667	3.869482
23.78333	3.71665
23.8	3.597021
23.81667	3.506493
23.83333	3.443212
23.85	3.411962
23.86667	3.411376
23.88333	3.432665
23.9	3.47124
23.91667	3.52329
23.93333	3.585595
23.95	3.654052
23.96667	3.725732
23.98333	3.793114
24	3.843212
24.01667	3.867724
24.03333	3.869579
24.05	3.859325
24.06667	3.840868
24.08333	3.811279
24.1	3.769091
24.11667	3.716943
24.13333	3.653466
24.15	3.584911
24.16667	3.527294
24.18333	3.486376
24.2	3.447607
24.21667	3.402685
24.23333	3.358154
24.25	3.327392
24.26667	3.317528
24.28333	3.327197
24.3	3.349658
24.31667	3.383935
24.33333	3.428564
24.35	3.47622
24.36667	3.522509
24.38333	3.570165
24.4	3.621435
24.41667	3.668212
24.43333	3.702392
24.45	3.725927
24.46667	3.744091
24.48333	3.750048
24.5	3.741161
24.51667	3.719775
24.53333	3.692626
24.55	3.65874
24.56667	3.624267
24.58333	3.61206
24.6	3.643212
24.61667	3.727001
24.63333	3.871825
24.65	4.103173
24.66667	4.460595
24.68333	4.983739
24.7	5.707568
24.71667	6.663915
24.73333	7.883545
24.75	9.399659
24.76667	11.23452
24.78333	13.37886
24.8	15.79263
24.81667	18.42036
24.83333	21.20317
24.85	24.07368
24.86667	26.94409
24.88333	29.70015
24.9	32.21186
24.91667	34.3688
24.93333	36.09917
24.95	37.35297
24.96667	38.08559
24.98333	38.27983
25	37.96714
25.01667	37.20181
25.03333	36.03637
25.05	34.53305
25.06667	32.77768
25.08333	30.85942
25.1	28.85347
25.11667	26.81577
25.13333	24.78804
25.15	22.80269
25.16667	20.88872
25.18333	19.07544
25.2	17.38599
25.21667	15.82124
25.23333	14.37525
25.25	13.04976
25.26667	11.84819
25.28333	10.75972
25.3	9.771338
25.31667	8.881104
25.33333	8.083349
25.35	7.366553
25.36667	6.724853
25.38333	6.159618
25.4	5.664403
25.41667	5.22915
25.43333	4.847704
25.45	4.517236
25.46667	4.232275
25.48333	3.983739
25.5	3.769872
25.51667	3.593017
25.53333	3.456493
25.55	3.354736
25.56667	3.277294
25.58333	3.218798
25.6	3.18247
25.61667	3.1729
25.63333	3.185302
25.65	3.21665
25.66667	3.267724
25.68333	3.342626
25.7	3.435888
25.71667	3.535888
25.73333	3.638525
25.75	3.741161
25.76667	3.836962
25.78333	3.922314
25.8	4.005224
25.81667	4.091357
25.83333	4.178369
25.85	4.260204
25.86667	4.333739
25.88333	4.401806
25.9	4.467919
25.91667	4.534716
25.93333	4.601708
25.95	4.66079
25.96667	4.702197
25.98333	4.723681
26	4.736474
26.01667	4.744579
26.03333	4.744579
26.05	4.730615
26.06667	4.706982
26.08333	4.675829
26.1	4.634521
26.11667	4.575732
26.13333	4.499658
26.15	4.410595
26.16667	4.309911
26.18333	4.197607
26.2	4.077197
26.21667	3.956396
26.23333	3.837743
26.25	3.720556
26.26667	3.603466
26.28333	3.488134
26.3	3.37915
26.31667	3.280614
26.33333	3.197607
26.35	3.133056
26.36667	3.081493
26.38333	3.035302
26.4	2.999853
26.41667	2.990575
26.43333	3.01372
26.45	3.072411
26.46667	3.173388
26.48333	3.325048
26.5	3.535302
26.51667	3.817528
26.53333	4.192431
26.55	4.671142
26.56667	5.251611
26.58333	5.928271
26.6	6.699365
26.61667	7.557569
26.63333	8.490479
26.65	9.472609
26.66667	10.46567
26.68333	11.42476
26.7	12.30991
26.71667	13.0895
26.73333	13.73345
26.75	14.21782
26.76667	14.5228
26.78333	14.63853
26.8	14.5687
26.81667	14.33247
26.83333	13.95816
26.85	13.4648
26.86667	12.86812
26.88333	12.19458
26.9	11.48042
26.91667	10.7562
26.93333	10.04107
26.95	9.35044
26.96667	8.697998
26.98333	8.085302
27	7.505811
27.01667	6.96372
27.03333	6.468896
27.05	6.025732
27.06667	5.628076
27.08333	5.270556
27.1	4.952001
27.11667	4.668603
27.13333	4.416747
27.15	4.193017
27.16667	3.997607
27.18333	3.829443
27.2	3.693017
27.21667	3.594579
27.23333	3.52788
27.25	3.484228
27.26667	3.47329
27.28333	3.520165
27.3	3.631689
27.31667	3.793114
27.33333	3.998193
27.35	4.260302
27.36667	4.600439
27.38333	5.025927
27.4	5.528759
27.41667	6.092431
27.43333	6.704443
27.45	7.357862
27.46667	8.039502
27.48333	8.725439
27.5	9.386476
27.51667	9.995264
27.53333	10.53101
27.55	10.98013
27.56667	11.33286
27.58333	11.57749
27.6	11.69917
27.61667	11.69087
27.63333	11.56206
27.65	11.3312
27.66667	11.01108
27.68333	10.61353
27.7	10.1605
27.71667	9.675734
27.73333	9.171534
27.75	8.656397
27.76667	8.146338
27.78333	7.658252
27.8	7.195654
27.81667	6.753076
27.83333	6.333154
27.85	5.948485
27.86667	5.606591
27.88333	5.302001
27.9	5.026415
27.91667	4.778368
27.93333	4.560009
27.95	4.366942
27.96667	4.191649
27.98333	4.033642
28	3.897216
28.01667	3.781786
28.03333	3.68247
28.05	3.595458
28.06667	3.518017
28.08333	3.442724
28.1	3.36704
28.11667	3.299267
28.13333	3.246728
28.15	3.204736
28.16667	3.168114
28.18333	3.135204
28.2	3.103661
28.21667	3.067724
28.23333	3.031493
28.25	3.003661
28.26667	2.98911
28.28333	2.97915
28.3	2.967822
28.31667	2.952001
28.33333	2.939404
28.35	2.943115
28.36667	2.964794
28.38333	2.997411
28.4	3.032372
28.41667	3.067528
28.43333	3.106493
28.45	3.152978
28.46667	3.209716
28.48333	3.271923
28.5	3.330907
28.51667	3.382958
28.53333	3.43081
28.55	3.479247
28.56667	3.533154
28.58333	3.590087
28.6	3.643603
28.61667	3.690478
28.63333	3.734911
28.65	3.778661
28.66667	3.821337
28.68333	3.865771
28.7	3.913622
28.71667	3.958935
28.73333	3.988915
28.75	3.997509
28.76667	3.991161
28.78333	3.978466
28.8	3.95786
28.81667	3.925048
28.83333	3.886962
28.85	3.851122
28.86667	3.821142
28.88333	3.795654
28.9	3.772704
28.91667	3.74829
28.93333	3.726318
28.95	3.714892
28.96667	3.716259
28.98333	3.72954
29	3.752001
29.01667	3.780517
29.03333	3.813427
29.05	3.856298
29.06667	3.915576
29.08333	3.98706
29.1	4.059228
29.11667	4.125341
29.13333	4.186962
29.15	4.251318
29.16667	4.324267
29.18333	4.40747
29.2	4.496728
29.21667	4.593798
29.23333	4.707568
29.25	4.843408
29.26667	5.001025
29.28333	5.178954
29.3	5.371337
29.31667	5.567919
29.33333	5.763134
29.35	5.955615
29.36667	6.142919
29.38333	6.31704
29.4	6.462548
29.41667	6.563134
29.43333	6.612353
29.45	6.616552
29.46667	6.578954
29.48333	6.501415
29.5	6.38706
29.51667	6.24165
29.53333	6.068017
29.55	5.868212
29.56667	5.648583
29.58333	5.419677
29.6	5.196435
29.61667	4.987353
29.63333	4.791064
29.65	4.605419
29.66667	4.433349
29.68333	4.274072
29.7	4.119579
29.71667	3.967333
29.73333	3.827001
29.75	3.707958
29.76667	3.609228
29.78333	3.521337
29.8	3.440966
29.81667	3.366747
29.83333	3.301415
29.85	3.246337
29.86667	3.201513
29.88333	3.164403
29.9	3.132177
29.91667	3.102685
29.93333	3.079345
29.95	3.06704
29.96667	3.063915
29.98333	3.060107
30	3.050732
30.01667	3.0437
30.03333	3.045654
30.05	3.056884
30.06667	3.076708
30.08333	3.105126
30.1	3.140966
30.11667	3.178368
30.13333	3.218114
30.15	3.26704
30.16667	3.326025
30.18333	3.384618
30.2	3.436864
30.21667	3.496239
30.23333	3.574267
30.25	3.674072
30.26667	3.796435
30.28333	3.946337
30.3	4.132567
30.31667	4.361571
30.33333	4.640283
30.35	4.981396
30.36667	5.403759
30.38333	5.920165
30.4	6.523192
30.41667	7.191455
30.43333	7.902881
30.45	8.646729
30.46667	9.408838
30.48333	10.16548
30.5	10.88208
30.51667	11.52857
30.53333	12.08052
30.55	12.51255
30.56667	12.80679
30.58333	12.95396
30.6	12.95484
30.61667	12.81568
30.63333	12.55308
30.65	12.19331
30.66667	11.7605
30.68333	11.27192
30.7	10.74058
30.71667	10.18071
30.73333	9.609327
30.75	9.046728
30.76667	8.513525
30.78333	8.016748
30.8	7.550244
30.81667	7.108057
30.83333	6.693408
30.85	6.307958
30.86667	5.951318
30.88333	5.623974
30.9	5.33286
30.91667	5.081396
30.93333	4.86538
30.95	4.66997
30.96667	4.48413
30.98333	4.307079
31	4.148778
31.01667	4.013915
31.03333	3.896337
31.05	3.789989
31.06667	3.694189
31.08333	3.609618
31.1	3.535595
31.11667	3.46997
31.13333	3.416064
31.15	3.375536
31.16667	3.344091
31.18333	3.314111
31.2	3.281103
31.21667	3.247509
31.23333	3.218407
31.25	3.196337
31.26667	3.180321
31.28333	3.173193
31.3	3.172509
31.31667	3.172314
31.33333	3.169286
31.35	3.167431
31.36667	3.172118
31.38333	3.185693
31.4	3.204345
31.41667	3.219677
31.43333	3.228661
31.45	3.232763
31.46667	3.236279
31.48333	3.241845
31.5	3.250439
31.51667	3.2562
31.53333	3.254052
31.55	3.24663
31.56667	3.23999
31.58333	3.237743
31.6	3.235009
31.61667	3.22495
31.63333	3.2104
31.65	3.200732
31.66667	3.200341
31.68333	3.202294
31.7	3.201611
31.71667	3.197802
31.73333	3.191064
31.75	3.181201
31.76667	3.169677
31.78333	3.155907
31.8	3.137646
31.81667	3.121435
31.83333	3.113622
31.85	3.108544
31.86667	3.097802
31.88333	3.085497
31.9	3.079345
31.91667	3.078661
31.93333	3.077294
31.95	3.077782
31.96667	3.083935
31.98333	3.091845
32	3.099365
32.01667	3.109521
32.03333	3.125829
32.05	3.150829
32.06667	3.187255
32.08333	3.236376
32.1	3.290673
32.11667	3.341454
32.13333	3.392626
32.15	3.456884
32.16667	3.538818
32.18333	3.624462
32.2	3.701611
32.21667	3.766454
32.23333	3.820361
32.25	3.86499
32.26667	3.898681
32.28333	3.921337
32.3	3.934423
32.31667	3.936767
32.33333	3.926318
32.35	3.902196
32.36667	3.868407
32.38333	3.830712
32.4	3.789306
32.41667	3.744482
32.43333	3.700536
32.45	3.656591
32.46667	3.608447
32.48333	3.555712
32.5	3.506103
32.51667	3.464208
32.53333	3.425341
32.55	3.386767
32.56667	3.352099
32.58333	3.324169
32.6	3.304736
32.61667	3.28745
32.63333	3.265087
32.65	3.243701
32.66667	3.228173
32.68333	3.219482
32.7	3.209423
32.71667	3.196826
32.73333	3.18413
32.75	3.174853
32.76667	3.166845
32.78333	3.157079
32.8	3.141064
32.81667	3.123583
32.83333	3.110888
32.85	3.106005
32.86667	3.108544
32.88333	3.11372
32.9	3.117333
32.91667	3.117138
32.93333	3.116259
32.95	3.117528
32.96667	3.118993
32.98333	3.118114
33	3.112743
33.01667	3.09956
33.03333	3.084618
33.05	3.077197
33.06667	3.084423
33.08333	3.098485
33.1	3.108154
33.11667	3.111669
33.13333	3.111767
33.15	3.114599
33.16667	3.127782
33.18333	3.156591
33.2	3.195263
33.21667	3.230224
33.23333	3.257079
33.25	3.280322
33.26667	3.306201
33.28333	3.342138
33.3	3.388036
33.31667	3.43706
33.33333	3.482568
33.35	3.523193
33.36667	3.557568
33.38333	3.583642
33.4	3.599658
33.41667	3.606591
33.43333	3.606396
33.45	3.599267
33.46667	3.586376
33.48333	3.566064
33.5	3.542821
33.51667	3.52163
33.53333	3.505322
33.55	3.490966
33.56667	3.474755
33.58333	3.458056
33.6	3.437743
33.61667	3.416064
33.63333	3.393115
33.65	3.367138
33.66667	3.333153
33.68333	3.299072
33.7	3.276025
33.71667	3.265282
33.73333	3.261376
33.75	3.257763
33.76667	3.251318
33.78333	3.246435
33.8	3.245458
33.81667	3.246142
33.83333	3.248193
33.85	3.251415
33.86667	3.25122
33.88333	3.240868
33.9	3.223388
33.91667	3.210595
33.93333	3.208935
33.95	3.217236
33.96667	3.228466
33.98333	3.231982
34	3.223095
34.01667	3.205517
34.03333	3.188232
34.05	3.183349
34.06667	3.191747
34.08333	3.20415
34.1	3.212743
34.11667	3.219286
34.13333	3.226415
34.15	3.230321
34.16667	3.228368
34.18333	3.227196
34.2	3.230907
34.21667	3.237548
34.23333	3.239697
34.25	3.238525
34.26667	3.239208
34.28333	3.243212
34.3	3.246435
34.31667	3.244384
34.33333	3.240283
34.35	3.24165
34.36667	3.248779
34.38333	3.253466
34.4	3.248681
34.41667	3.236572
34.43333	3.224755
34.45	3.216357
34.46667	3.211864
34.48333	3.213232
34.5	3.221044
34.51667	3.231689
34.53333	3.240185
34.55	3.244384
34.56667	3.245556
34.58333	3.244775
34.6	3.243017
34.61667	3.238329
34.63333	3.233544
34.65	3.237353
34.66667	3.244677
34.68333	3.2479
34.7	3.245556
34.71667	3.242626
34.73333	3.240771
34.75	3.239892
34.76667	3.245361
34.78333	3.259032
34.8	3.273388
34.81667	3.278857
34.83333	3.270165
34.85	3.259423
34.86667	3.258642
34.88333	3.271533
34.9	3.287841
34.91667	3.293114
34.93333	3.287939
34.95	3.282372
34.96667	3.285204
34.98333	3.295068
35	3.306201
35.01667	3.312157
35.03333	3.314697
35.05	3.318798
35.06667	3.325634
35.08333	3.33286
35.1	3.33374
35.11667	3.325243
35.13333	3.313622
35.15	3.312255
35.16667	3.321532
35.18333	3.329443
35.2	3.330419
35.21667	3.326318
35.23333	3.321337
35.25	3.315478
35.26667	3.313036
35.28333	3.314599
35.3	3.317822
35.31667	3.314501
35.33333	3.312255
35.35	3.319384
35.36667	3.334033
35.38333	3.343505
35.4	3.339989
35.41667	3.332665
35.43333	3.33579
35.45	3.352587
35.46667	3.368505
35.48333	3.371044
35.5	3.36704
35.51667	3.366552
35.53333	3.368212
35.55	3.368896
35.56667	3.370946
35.58333	3.375341
35.6	3.374657
35.61667	3.371239
35.63333	3.373193
35.65	3.379833
35.66667	3.38579
35.68333	3.390575
35.7	3.395556
35.71667	3.398486
35.73333	3.397216
35.75	3.395653
35.76667	3.39497
35.78333	3.394872
35.8	3.395751
35.81667	3.394677
35.83333	3.391357
35.85	3.389111
35.86667	3.391064
35.88333	3.391552
35.9	3.384423
35.91667	3.374657
35.93333	3.374657
35.95	3.3854
35.96667	3.395751
35.98333	3.400927
36	3.406982
36.01667	3.418407
36.03333	3.42661
36.05	3.420947
36.06667	3.403564
36.08333	3.389599
36.1	3.391064
36.11667	3.406982
36.13333	3.42954
36.15	3.449657
36.16667	3.454736
36.18333	3.446142
36.2	3.434423
36.21667	3.42788
36.23333	3.425243
36.25	3.423779
36.26667	3.425048
36.28333	3.430321
36.3	3.442333
36.31667	3.457958
36.33333	3.467431
36.35	3.466064
36.36667	3.459228
36.38333	3.454247
36.4	3.449462
36.41667	3.443896
36.43333	3.441552
36.45	3.446142
36.46667	3.451904
36.48333	3.456982
36.5	3.460595
36.51667	3.461376
36.53333	3.459618
36.55	3.461571
36.56667	3.468603
36.58333	3.474462
36.6	3.473388
36.61667	3.468017
36.63333	3.464208
36.65	3.462841
36.66667	3.463525
36.68333	3.465478
36.7	3.470165
36.71667	3.479833
36.73333	3.492821
36.75	3.502001
36.76667	3.506298
36.78333	3.509228
36.8	3.515478
36.81667	3.523388
36.83333	3.52954
36.85	3.530517
36.86667	3.525927
36.88333	3.517919
36.9	3.514404
36.91667	3.516161
36.93333	3.518798
36.95	3.519677
36.96667	3.522021
36.98333	3.530614
37	3.542919
37.01667	3.555126
37.03333	3.560693
37.05	3.555517
37.06667	3.547509
37.08333	3.544775
37.1	3.549365
37.11667	3.557177
37.13333	3.564697
37.15	3.573681
37.16667	3.585497
37.18333	3.595849
37.2	3.596825
37.21667	3.590478
37.23333	3.588525
37.25	3.59165
37.26667	3.594579
37.28333	3.598193
37.3	3.601708
37.31667	3.599072
37.33333	3.586474
37.35	3.567724
37.36667	3.552978
37.38333	3.548388
37.4	3.555517
37.41667	3.57163
37.43333	3.589599
37.45	3.603076
37.46667	3.607763
37.48333	3.606591
37.5	3.604345
37.51667	3.600341
37.53333	3.595849
37.55	3.596923
37.56667	3.603857
37.58333	3.610986
37.6	3.61704
37.61667	3.630028
37.63333	3.645947
37.65	3.65288
37.66667	3.646337
37.68333	3.638232
37.7	3.631493
37.71667	3.625829
37.73333	3.623779
37.75	3.625146
37.76667	3.626415
37.78333	3.626415
37.8	3.626415
37.81667	3.62915
37.83333	3.636474
37.85	3.644091
37.86667	3.646044
37.88333	3.641747
37.9	3.64038
37.91667	3.646533
37.93333	3.654638
37.95	3.657861
37.96667	3.660107
37.98333	3.663329
38	3.664111
38.01667	3.661865
38.03333	3.663915
38.05	3.672314
38.06667	3.676415
38.08333	3.674267
38.1	3.675927
38.11667	3.683446
38.13333	3.689404
38.15	3.686864
38.16667	3.680224
38.18333	3.676415
38.2	3.677001
38.21667	3.677099
38.23333	3.673388
38.25	3.671337
38.26667	3.675146
38.28333	3.681396
38.3	3.684814
38.31667	3.685888
38.33333	3.689404
38.35	3.698095
38.36667	3.706689
38.38333	3.708837
38.4	3.701708
38.41667	3.693115
38.43333	3.693603
38.45	3.698974
38.46667	3.69956
38.48333	3.697411
38.5	3.700536
38.51667	3.70581
38.53333	3.702685
38.55	3.696337
38.56667	3.698486
38.58333	3.707275
38.6	3.711767
38.61667	3.712548
38.63333	3.718407
38.65	3.729052
38.66667	3.738134
38.68333	3.738134
38.7	3.731005
38.71667	3.72329
38.73333	3.722509
38.75	3.732372
38.76667	3.745068
38.78333	3.750732
38.8	3.751611
38.81667	3.754052
38.83333	3.757665
38.85	3.760009
38.86667	3.760888
38.88333	3.760693
38.9	3.761669
38.91667	3.765673
38.93333	3.770165
38.95	3.771923
38.96667	3.775439
38.98333	3.784618
39	3.794286
39.01667	3.800732
39.03333	3.805321
39.05	3.808251
39.06667	3.806884
39.08333	3.804736
39.1	3.80913
39.11667	3.820946
39.13333	3.8312
39.15	3.839404
39.16667	3.850634
39.18333	3.866064
39.2	3.880028
39.21667	3.890673
39.23333	3.899071
39.25	3.908544
39.26667	3.924853
39.28333	3.954833
39.3	3.992821
39.31667	4.025634
39.33333	4.043017
39.35	4.053075
39.36667	4.072997
39.38333	4.104247
39.4	4.134423
39.41667	4.155517
39.43333	4.175146
39.45	4.203759
39.46667	4.236279
39.48333	4.26538
39.5	4.289697
39.51667	4.314599
39.53333	4.345849
39.55	4.3812
39.56667	4.419677
39.58333	4.456689
39.6	4.492236
39.61667	4.529345
39.63333	4.566552
39.65	4.599364
39.66667	4.630029
39.68333	4.664794
39.7	4.702978
39.71667	4.74038
39.73333	4.779345
39.75	4.823388
39.76667	4.869287
39.78333	4.913622
39.8	4.956982
39.81667	4.998778
39.83333	5.039403
39.85	5.080615
39.86667	5.123388
39.88333	5.168603
39.9	5.217138
39.91667	5.268701
39.93333	5.320751
39.95	5.374462
39.96667	5.427685
39.98333	5.472314
40	5.504052
40.01667	5.529931
40.03333	5.56079
40.05	5.601415
40.06667	5.649462
40.08333	5.703759
40.1	5.763427
40.11667	5.820556
40.13333	5.86411
40.15	5.892236
40.16667	5.917919
40.18333	5.955517
40.2	6.011181
40.21667	6.073485
40.23333	6.132372
40.25	6.1854
40.26667	6.237157
40.28333	6.29204
40.3	6.352392
40.31667	6.415868
40.33333	6.47329
40.35	6.521923
40.36667	6.565966
40.38333	6.612743
40.4	6.661864
40.41667	6.712646
40.43333	6.764989
40.45	6.818212
40.46667	6.868896
40.48333	6.911474
40.5	6.946337
40.51667	6.978759
40.53333	7.018115
40.55	7.064696
40.56667	7.109618
40.58333	7.150537
40.6	7.198584
40.61667	7.260596
40.63333	7.327979
40.65	7.391065
40.66667	7.451514
40.68333	7.507178
40.7	7.545654
40.71667	7.559912
40.73333	7.557861
40.75	7.543408
40.76667	7.514112
40.78333	7.476807
40.8	7.4479
40.81667	7.438721
40.83333	7.444971
40.85	7.446338
40.86667	7.433936
40.88333	7.41626
40.9	7.40083
40.91667	7.392627
40.93333	7.392822
40.95	7.403076
40.96667	7.42251
40.98333	7.445068
41	7.455518
41.01667	7.451709
41.03333	7.449951
41.05	7.457373
41.06667	7.463819
41.08333	7.462646
41.1	7.462256
41.11667	7.463721
41.13333	7.4646
41.15	7.473193
41.16667	7.497412
41.18333	7.530029
41.2	7.558447
41.21667	7.579443
41.23333	7.596143
41.25	7.610888
41.26667	7.62456
41.28333	7.642432
41.3	7.667236
41.31667	7.693115
41.33333	7.712939
41.35	7.727588
41.36667	7.741651
41.38333	7.757666
41.4	7.780225
41.41667	7.802686
41.43333	7.813818
41.45	7.815088
41.46667	7.814893
41.48333	7.820068
41.5	7.83208
41.51667	7.855615
41.53333	7.886963
41.55	7.913135
41.56667	7.928271
41.58333	7.938623
41.6	7.949756
41.61667	7.96206
41.63333	7.976807
41.65	7.994775
41.66667	8.011279
41.68333	8.026807
41.7	8.041944
41.71667	8.055908
41.73333	8.069971
41.75	8.08374
41.76667	8.096338
41.78333	8.106494
41.8	8.11499
41.81667	8.124463
41.83333	8.135595
41.85	8.144483
41.86667	8.156787
41.88333	8.180517
41.9	8.21333
41.91667	8.236181
41.93333	8.242041
41.95	8.239795
41.96667	8.238037
41.98333	8.244092
42	8.263037
42.01667	8.285498
42.03333	8.291357
42.05	8.284228
42.06667	8.279248
42.08333	8.282373
42.1	8.288135
42.11667	8.293604
42.13333	8.302588
42.15	8.318115
42.16667	8.336279
42.18333	8.352002
42.2	8.362842
42.21667	8.368115
42.23333	8.370166
42.25	8.369482
42.26667	8.366846
42.28333	8.366455
42.3	8.373194
42.31667	8.386572
42.33333	8.400635
42.35	8.409815
42.36667	8.415967
42.38333	8.423193
42.4	8.429346
42.41667	8.431005
42.43333	8.430224
42.45	8.433154
42.46667	8.439306
42.48333	8.440577
42.5	8.435498
42.51667	8.435888
42.53333	8.449658
42.55	8.469385
42.56667	8.482763
42.58333	8.486475
42.6	8.485205
42.61667	8.482862
42.63333	8.485498
42.65	8.489306
42.66667	8.49458
42.68333	8.497314
42.7	8.492724
42.71667	8.485888
42.73333	8.482666
42.75	8.482471
42.76667	8.47583
42.78333	8.464111
42.8	8.458349
42.81667	8.461865
42.83333	8.463623
42.85	8.452197
42.86667	8.428467
42.88333	8.403857
42.9	8.378174
42.91667	8.348486
42.93333	8.324756
42.95	8.321142
42.96667	8.336963
42.98333	8.358935
43	8.378467
43.01667	8.398291
43.03333	8.419482
43.05	8.443506
43.06667	8.468409
43.08333	8.486963
43.1	8.48999
43.11667	8.472412
43.13333	8.435888
43.15	8.379834
43.16667	8.300244
43.18333	8.185303
43.2	8.024073
43.21667	7.826318
43.23333	7.610205
43.25	7.38667
43.26667	7.15835
43.28333	6.9229
43.3	6.683349
43.31667	6.446923
43.33333	6.22329
43.35	6.014208
43.36667	5.815087
43.38333	5.623974
43.4	5.447509
43.41667	5.289892
43.43333	5.141943
43.45	4.993407
43.46667	4.844091
43.48333	4.699657
43.5	4.562743
43.51667	4.43081
43.53333	4.303369
43.55	4.178466
43.56667	4.056982
43.58333	3.938134
43.6	3.822997
43.61667	3.710693
43.63333	3.601806
43.65	3.498583
43.66667	3.402782
43.68333	3.3104
43.7	3.215771
43.71667	3.117138
43.73333	3.022118
43.75	2.937548
43.76667	2.859032
43.78333	2.778759
43.8	2.695165
43.81667	2.609228
43.83333	2.521923
43.85	2.440575
43.86667	2.372118
43.88333	2.315282
43.9	2.257177
43.91667	2.188525
43.93333	2.111279
43.95	2.038622
43.96667	1.978466
43.98333	1.924169
44	1.866357
44.01667	1.807958
44.03333	1.756298
44.05	1.710888
44.06667	1.667431
44.08333	1.622411
44.1	1.573779
44.11667	1.522021
44.13333	1.470751
44.15	1.426903
44.16667	1.390087
44.18333	1.354443
44.2	1.315185
44.21667	1.273974
44.23333	1.236669
44.25	1.207275
44.26667	1.181298
44.28333	1.153661
44.3	1.124169
44.31667	1.096142
44.33333	1.074267
44.35	1.056396
44.36667	1.038622
44.38333	1.011669
44.4	0.9799309
44.41667	0.9548332
44.43333	0.9395012
44.45	0.9285637
44.46667	0.9163567
44.48333	0.9000481
44.5	0.8805168
44.51667	0.8667473
44.53333	0.8639153
44.55	0.8643059
44.56667	0.8522941
44.58333	0.8274895
44.6	0.7981926
44.61667	0.7717277
44.63333	0.7495598
44.65	0.731591
44.66667	0.7175285
44.68333	0.7043449
44.7	0.6830559
44.71667	0.6490715
44.73333	0.606884
44.75	0.5701653
44.76667	0.5473137
44.78333	0.5351067
44.8	0.5246574
44.81667	0.510009
44.83333	0.4852043
44.85	0.4501457
44.86667	0.415966
44.88333	0.3919426
44.9	0.3811027
44.91667	0.378466
44.93333	0.375927
44.95	0.365966
44.96667	0.3449699
44.98333	0.3212395
45	0.3054191
45.01667	0.3014153
45.03333	0.3014153
45.05	0.2963371
45.06667	0.2845207
45.08333	0.2680168
45.1	0.2513176
45.11667	0.2399895
45.13333	0.2366692
45.15	0.2323723
45.16667	0.2246574
45.18333	0.219384
45.2	0.2200676
45.21667	0.2212395
45.23333	0.216259
45.25	0.2038567
45.26667	0.1866692
45.28333	0.1745598
45.3	0.1728996
45.31667	0.1780754
45.33333	0.1800285
45.35	0.1739738
45.36667	0.1640129
45.38333	0.1567864
45.4	0.1535637
45.41667	0.1498528
45.43333	0.1434074
45.45	0.1366692
45.46667	0.1316887
45.48333	0.1295402
45.5	0.1309074
45.51667	0.1307121
45.53333	0.1272942
45.55	0.1242668
45.56667	0.1257317
45.58333	0.1288567
45.6	0.1267082
45.61667	0.1195793
45.63333	0.1106926
45.65	0.1029778
45.66667	0.09409104
45.68333	0.07914963
45.7	0.06137619
45.71667	0.05121994
45.73333	0.05610275
45.75	0.07426681
45.76667	0.08784103
45.78333	0.08422776
45.8	0.07075119
45.81667	0.06528244
45.83333	0.0731926
45.85	0.07905197
45.86667	0.07123947
45.88333	0.05561447
45.9	0.04848557
45.91667	0.05200119
45.93333	0.05610275
45.95	0.05610275
45.96667	0.05864181
45.98333	0.06870041
46	0.07621994
46.01667	0.07592697
46.03333	0.06860276
46.05	0.05932541
46.06667	0.05395431
46.08333	0.053759
46.1	0.05815353
46.11667	0.06342697
46.13333	0.06791916
46.15	0.06694259
46.16667	0.06205978
46.18333	0.05483322
46.2	0.04789963
46.21667	0.04536057
46.23333	0.04418869
46.25	0.03696213
46.26667	0.0231926
46.28333	0.01166916
46.3	0.009911346
46.31667	0.01743088
46.33333	0.03246994
46.35	0.04291916
46.36667	0.03842697
46.38333	0.02123947
46.4	0.004442596
46.41667	-0.001221466
46.43333	0.002391815
46.45	0.007079315
46.46667	0.008446502
46.48333	0.01030197
46.5	0.013134
46.51667	0.01332931
46.53333	0.01147385
46.55	0.01362228
46.56667	0.0178215
46.58333	0.01879806
46.6	0.01733322
46.61667	0.016259
46.63333	0.01352463
46.65	0.007860566
46.66667	0.001512909
46.68333	-0.003858185
46.7	-0.006006622
46.71667	-0.002490997
46.73333	0.005712128
46.75	0.01391525
46.76667	0.02172775
46.78333	0.02768478
46.8	0.02465744
46.81667	0.01186447
46.83333	-0.003565216
46.85	-0.01254959
46.86667	-0.01040115
46.88333	-0.003565216
46.9	0.0005363465
46.91667	0.001415253
46.93333	0.006200409
46.95	0.01245041
46.96667	0.01030197
46.98333	0.0009269714
47	-0.003369904
47.01667	0.0004386902
47.03333	-0.0003425598
47.05	-0.009619904
47.06667	-0.01840897
47.08333	-0.02143631
47.1	-0.02299881
47.11667	-0.02065506
47.13333	-0.007959748
47.15	0.005712128
47.16667	0.01352463
47.18333	0.01342697
47.2	0.010009
47.21667	0.008934784
47.23333	0.01118088
47.25	0.009813691
47.26667	0.002489471
47.28333	0.001317596
47.3	0.01274338
47.31667	0.02768478
47.33333	0.031884
47.35	0.02641525
47.36667	0.01987228
47.38333	0.01928635
47.4	0.01987228
47.41667	0.01586838
47.43333	0.008641815
47.45	0.006102753
47.46667	0.006005096
47.48333	0.001317596
47.5	-0.002198029
47.51667	0.005223847
47.53333	0.02045822
47.55	0.02983322
47.56667	0.02573166
47.58333	0.01567307
47.6	0.007958221
47.61667	0.004833221
47.63333	0.005321503
47.65	0.008934784
47.66667	0.01166916
47.68333	0.01088791
47.7	0.006981659
47.71667	0.001610565
47.73333	-0.002783966
47.75	-0.004737091
47.76667	-0.004346466
47.78333	-0.003858185
47.8	-0.00581131
47.81667	-0.005615997
47.83333	-0.001612091
47.85	0.001317596
47.86667	-0.0007331848
47.88333	-0.004444122
47.9	-0.006006622
47.91667	-0.002295685
47.93333	0.006005096
47.95	0.013134
47.96667	0.010009
47.98333	-0.0008308411
48	-0.006690216
48.01667	-0.00190506
48.03333	0.006395721
48.05	0.00825119
48.06667	0.001708221
48.08333	-0.009326935
48.1	-0.018116
48.11667	-0.0143074
48.13333	0.0002433777
48.15	0.0138176
48.16667	0.0146965
48.18333	0.006200409
48.2	0.003270722
48.21667	0.005028534
48.23333	0.002391815
48.25	-0.003662872
48.26667	-0.002198029
48.28333	0.008544159
48.3	0.01987228
48.31667	0.0263176
48.33333	0.02905197
48.35	0.03403244
48.36667	0.04272385
48.38333	0.05014572
48.4	0.05112229
48.41667	0.04741134
48.43333	0.04418869
48.45	0.04340744
48.46667	0.04370041
48.48333	0.04584885
48.5	0.04887619
48.51667	0.05053635
48.53333	0.0490715
48.55	0.04829025
48.56667	0.04731369
48.58333	0.04028244
48.6	0.02582932
48.61667	0.01088791
48.63333	0.002294159
48.65	0.0009269714
48.66667	0.006395721
48.68333	0.0153801
48.7	0.02104416
48.71667	0.01909103
48.73333	0.0153801
48.75	0.01704025
48.76667	0.02641525
48.78333	0.03491135
48.8	0.03764572
48.81667	0.03491135
48.83333	0.02856369
48.85	0.02338791
48.86667	0.02504807
48.88333	0.03110275
48.9	0.03139572
48.91667	0.02553635
48.93333	0.02465744
48.95	0.03207932
48.96667	0.03940354
48.98333	0.03989182
49	0.03481369
49.01667	0.02485275
49.03333	0.01557541
49.05	0.01508713
49.06667	0.02426681
49.08333	0.03051681
49.1	0.02436447
49.11667	0.01352463
49.13333	0.008934784
49.15	0.008739471
49.16667	0.01059494
49.18333	0.016259
49.2	0.02524338
49.21667	0.02846603
49.23333	0.02514572
49.25	0.0271965
49.26667	0.0396965
49.28333	0.05424728
49.3	0.05815353
49.31667	0.04955978
49.33333	0.03588791
49.35	0.02446213
49.36667	0.01840744
49.38333	0.01801682
49.4	0.01811447
49.41667	0.01332931
49.43333	0.006786346
49.45	0.00746994
49.46667	0.01567307
49.48333	0.02338791
49.5	0.02778244
49.51667	0.03159104
49.53333	0.03608322
49.55	0.03793869
49.56667	0.03539963
49.58333	0.03022385
49.6	0.02504807
49.61667	0.02504807
49.63333	0.03071213
49.65	0.03618088
49.66667	0.03666916
49.68333	0.03559494
49.7	0.04008713
49.71667	0.04887619
49.73333	0.05317307
49.75	0.04731369
49.76667	0.03491135
49.78333	0.02026291
49.8	0.01137619
49.81667	0.01342697
49.83333	0.02416916
49.85	0.03432541
49.86667	0.03989182
49.88333	0.04262619
49.9	0.04379807
49.91667	0.0419426
49.93333	0.03696213
49.95	0.02729416
49.96667	0.01498947
49.98333	0.01030197
50	0.01645431
50.01667	0.02641525
50.03333	0.02954025
50.05	0.02670822
50.06667	0.02368088
50.08333	0.02211838
50.1	0.01957932
50.11667	0.01987228
50.13333	0.02641525
50.15	0.03276291
50.16667	0.031884
50.18333	0.02377853
50.2	0.01411057
50.21667	0.008837128
50.23333	0.00512619
50.25	-0.00268631
50.26667	-0.01167068
50.28333	-0.011866
50.3	-4.959106e-05
50.31667	0.01664963
50.33333	0.03217697
50.35	0.04223556
50.36667	0.0450676
50.38333	0.04174728
50.4	0.03930588
50.41667	0.03715744
50.43333	0.02973557
50.45	0.01713791
50.46667	0.01264572
50.48333	0.0185051
50.5	0.0271965
50.51667	0.02495041
50.53333	0.0146965
50.55	0.00825119
50.56667	0.0138176
50.58333	0.02856369
50.6	0.04272385
50.61667	0.04789963
50.63333	0.04213791
50.65	0.03051681
50.66667	0.02104416
50.68333	0.02016525
50.7	0.02455978
50.71667	0.02661056
50.73333	0.02182541
50.75	0.01567307
50.76667	0.01450119
50.78333	0.02231369
50.8	0.03354416
50.81667	0.03774338
50.83333	0.03559494
50.85	0.03579025
50.86667	0.04096603
50.88333	0.04555588
50.9	0.04487228
50.91667	0.03832931
50.93333	0.02573166
50.95	0.010009
50.96667	0.0007316589
50.98333	-0.0006355286
51	0.0004386902
51.01667	0.00121994
51.03333	0.001903534
51.05	0.001415253
51.06667	-0.0003425598
51.08333	0.002684784
51.1	0.01176682
51.11667	0.01879806
51.13333	0.01811447
51.15	0.01440353
51.16667	0.01323166
51.18333	0.01440353
51.2	0.01508713
51.21667	0.01567307
51.23333	0.01606369
51.25	0.01567307
51.26667	0.01723557
51.28333	0.02241135
51.3	0.0294426
51.31667	0.035009
51.33333	0.0396965
51.35	0.04291916
51.36667	0.04164963
51.38333	0.03393478
51.4	0.02485275
51.41667	0.02231369
51.43333	0.0231926
51.45	0.01840744
51.46667	0.007079315
51.48333	-0.002100372
51.5	-0.003272247
51.51667	0.00278244
51.53333	0.009618377
51.55	0.01079025
51.56667	0.009325409
51.58333	0.01127853
51.6	0.01723557
51.61667	0.02241135
51.63333	0.02700119
51.65	0.03354416
51.66667	0.04301681
51.68333	0.04672775
51.7	0.03647385
51.71667	0.01577072
51.73333	-0.0005378723
51.75	-0.003174591
51.76667	0.006981659
51.78333	0.0185051
51.8	0.0209465
51.81667	0.01655197
51.83333	0.01674728
51.85	0.02485275
51.86667	0.03276291
51.88333	0.03178634
51.9	0.02211838
51.91667	0.01577072
51.93333	0.0178215
51.95	0.02524338
51.96667	0.0294426
51.98333	0.02924728
52	0.02905197
52.01667	0.02973557
52.03333	0.028759
52.05	0.02768478
52.06667	0.03120041
52.08333	0.0388176
52.1	0.04252853
52.11667	0.03793869
52.13333	0.03217697
52.15	0.03129806
52.16667	0.03286057
52.18333	0.03217697
52.2	0.03090744
52.21667	0.03129806
52.23333	0.02846603
52.25	0.0185051
52.26667	0.01108322
52.28333	0.01411057
52.3	0.02329025
52.31667	0.02504807
52.33333	0.01879806
52.35	0.01557541
52.36667	0.01635666
52.38333	0.01489182
52.4	0.01108322
52.41667	0.01108322
52.43333	0.016259
52.45	0.02123947
52.46667	0.01996994
52.48333	0.01186447
52.5	0.004735565
52.51667	0.007372284
52.53333	0.01635666
52.55	0.02104416
52.56667	0.01909103
52.58333	0.01830978
52.6	0.02016525
52.61667	0.01928635
52.63333	0.01840744
52.65	0.02612228
52.66667	0.03745041
52.68333	0.04204025
52.7	0.03959884
52.71667	0.03579025
52.73333	0.03178634
52.75	0.02739182
52.76667	0.02543869
52.78333	0.02612228
52.8	0.0240715
52.81667	0.01870041
52.83333	0.01342697
52.85	0.009130096
52.86667	0.006395721
52.88333	0.008934784
52.9	0.01596603
52.91667	0.02465744
52.93333	0.03090744
52.95	0.03325119
52.96667	0.03129806
52.98333	0.02504807
53	0.02016525
53.01667	0.01830978
53.03333	0.01811447
53.05	0.01987228
53.06667	0.022509
53.08333	0.02504807
53.1	0.02885666
53.11667	0.03559494
53.13333	0.03930588
53.15	0.03422775
53.16667	0.02416916
53.18333	0.0178215
53.2	0.01635666
53.21667	0.01616135
53.23333	0.0146965
53.25	0.01440353
53.26667	0.01733322
53.28333	0.022509
53.3	0.02846603
53.31667	0.03276291
53.33333	0.03198166
53.35	0.02436447
53.36667	0.01479416
53.38333	0.0106926
53.4	0.01528244
53.41667	0.02621994
53.43333	0.03539963
53.45	0.03823166
53.46667	0.03686447
53.48333	0.03608322
53.5	0.03647385
53.51667	0.03442306
53.53333	0.0303215
53.55	0.02846603
53.56667	0.03041916
53.58333	0.03159104
53.6	0.02885666
53.61667	0.02661056
53.63333	0.02739182
53.65	0.02807541
53.66667	0.02289963
53.68333	0.01684494
53.7	0.01411057
53.71667	0.01508713
53.73333	0.01830978
53.75	0.02143478
53.76667	0.02495041
53.78333	0.02827072
53.8	0.03071213
53.81667	0.03159104
53.83333	0.03120041
53.85	0.03080978
53.86667	0.02983322
53.88333	0.0271965
53.9	0.02465744
53.91667	0.02358322
53.93333	0.02465744
53.95	0.02700119
53.96667	0.02807541
53.98333	0.02426681
54	0.0153801
54.01667	0.009325409
54.03333	0.01391525
54.05	0.02797775
54.06667	0.03705978
54.08333	0.03325119
54.1	0.02338791
54.11667	0.01977463
54.13333	0.02582932
54.15	0.03422775
54.16667	0.03803635
54.18333	0.03666916
54.2	0.03432541
54.21667	0.03276291
54.23333	0.03002853
54.25	0.02446213
54.26667	0.01957932
54.28333	0.01704025
54.3	0.01508713
54.31667	0.01430588
54.33333	0.01752853
54.35	0.02368088
54.36667	0.028759
54.38333	0.03246994
54.4	0.03754807
54.41667	0.04116135
54.43333	0.03823166
54.45	0.0334465
54.46667	0.03022385
54.48333	0.02621994
54.5	0.019384
54.51667	0.0169426
54.53333	0.02289963
54.55	0.02817306
54.56667	0.01967697
54.58333	0.005516815
54.6	-0.0004402161
54.61667	0.005712128
54.63333	0.01489182
54.65	0.01743088
54.66667	0.01420822
54.68333	0.01479416
54.7	0.02495041
54.71667	0.0396965
54.73333	0.04809494
54.75	0.04311447
54.76667	0.02993088
54.78333	0.01547775
54.8	0.005809784
54.81667	0.003368378
54.83333	0.0115715
54.85	0.02758713
54.86667	0.03871994
54.88333	0.04008713
54.9	0.03530197
54.91667	0.02553635
54.93333	0.01459885
54.95	0.009716034
54.96667	0.01508713
54.98333	0.02377853
55	0.02651291
