"SampleName"	"23. Blank (mQ)"
"System Name"	"Alliance 2"
"Sample Set Name"	"DTtV_15052025 GSL new HPLC"
"Date Acquired"	"5/16/2025 11:39:02 AM BST"
"Sample Set Start Date"	"5/15/2025 2:04:31 PM BST"
0	0.001254272
0.01666667	0.00418396
0.03333333	0.00153389
0.05	0.01002998
0.06666667	0.0282917
0.08333333	0.05036201
0.1	0.06618233
0.1166667	0.07350655
0.1333333	0.07956123
0.15	0.08698311
0.1666667	0.09225655
0.1833333	0.09743233
0.2	0.1039753
0.2166667	0.1101276
0.2333333	0.1112995
0.25	0.1098347
0.2666667	0.1085651
0.2833333	0.1047565
0.3	0.09879951
0.3166667	0.09313545
0.3333333	0.08971749
0.35	0.08698311
0.3666667	0.08561592
0.3833333	0.08434639
0.4	0.08073311
0.4166667	0.0789753
0.4333333	0.08356514
0.45	0.09088936
0.4666667	0.0923542
0.4833333	0.0861042
0.5	0.07575264
0.5166667	0.06901436
0.5333333	0.06764717
0.55	0.07106514
0.5666667	0.0789753
0.5833333	0.09176826
0.6	0.09772529
0.6166667	0.08766671
0.6333333	0.06813546
0.65	0.05827217
0.6666667	0.05846749
0.6833333	0.05456124
0.7	0.03981514
0.7166667	0.02497139
0.7333333	0.02252998
0.75	0.03112373
0.7666667	0.04020577
0.7833333	0.04176826
0.8	0.03971748
0.8166667	0.04254951
0.8333333	0.04674874
0.85	0.0470417
0.8666667	0.04635811
0.8833333	0.05085029
0.9	0.0555378
0.9166667	0.05426826
0.9333333	0.04635811
0.95	0.03600655
0.9666667	0.03073311
0.9833333	0.03180733
1	0.04157295
1.016667	0.0539753
1.033333	0.06051826
1.05	0.05876045
1.066667	0.05368233
1.083333	0.04899483
1.1	0.04469795
1.116667	0.03805733
1.133333	0.03434639
1.15	0.03405342
1.166667	0.03356514
1.183333	0.02917061
1.2	0.02106514
1.216667	0.01413155
1.233333	0.01149483
1.25	0.01627998
1.266667	0.0258503
1.283333	0.03376045
1.3	0.0329792
1.316667	0.0227253
1.333333	0.0102253
1.35	0.005635452
1.366667	0.009834671
1.383333	0.01354561
1.4	0.01081123
1.416667	0.00700264
1.433333	0.008955765
1.45	0.01452217
1.466667	0.01627998
1.483333	0.01364326
1.5	0.01149483
1.516667	0.01256905
1.533333	0.01276436
1.55	0.00934639
1.566667	0.008955765
1.583333	0.01598701
1.6	0.02292061
1.616667	0.02165108
1.633333	0.01540108
1.65	0.01315498
1.666667	0.01569405
1.683333	0.02018623
1.7	0.02643623
1.716667	0.03620186
1.733333	0.05446358
1.75	0.08629952
1.766667	0.1346394
1.783333	0.1895222
1.8	0.2335651
1.816667	0.2611042
1.833333	0.2732136
1.85	0.275948
1.866667	0.2703815
1.883333	0.2562214
1.9	0.2345417
1.916667	0.212569
1.933333	0.1950886
1.95	0.1823933
1.966667	0.1666706
1.983333	0.146944
2	0.1294636
2.016667	0.1132526
2.033333	0.09782295
2.05	0.08258858
2.066667	0.06881905
2.083333	0.05846749
2.1	0.0517292
2.116667	0.04870186
2.133333	0.04586983
2.15	0.03493233
2.166667	0.01598701
2.183333	-0.004813767
2.2	-0.01672783
2.216667	-0.02034111
2.233333	-0.02131767
2.25	-0.01936455
2.266667	-0.01487236
2.283333	-0.01291924
2.3	-0.01663017
2.316667	-0.02629814
2.333333	-0.04084892
2.35	-0.05569267
2.366667	-0.0670208
2.383333	-0.07707939
2.4	-0.09338798
2.416667	-0.1123333
2.433333	-0.1279583
2.45	-0.1333294
2.466667	-0.1313763
2.483333	-0.1287396
2.5	-0.124345
2.516667	-0.1187786
2.533333	-0.1135052
2.55	-0.1080364
2.566667	-0.09729423
2.583333	-0.07551689
2.6	-0.04182548
2.616667	0.000850296
2.633333	0.05006905
2.65	0.1084675
2.666667	0.1869831
2.683333	0.2900105
2.7	0.4077839
2.716667	0.5302448
2.733333	0.6599323
2.75	0.8062214
2.766667	0.9726276
2.783333	1.154073
2.8	1.353292
2.816667	1.59255
2.833333	1.910421
2.85	2.349385
2.866667	2.95212
2.883333	3.743526
2.9	4.705636
2.916667	5.75964
2.933333	6.790011
2.95	7.675655
2.966667	8.328976
2.983333	8.715206
3	8.851729
3.016667	8.790206
3.033333	8.597726
3.05	8.347921
3.066667	8.102901
3.083333	7.904269
3.1	7.768136
3.116667	7.685519
3.133333	7.625167
3.15	7.552316
3.166667	7.451046
3.183333	7.322042
3.2	7.179171
3.216667	7.058273
3.233333	7.020968
3.25	7.144113
3.266667	7.553976
3.283333	8.54753
3.3	10.68718
3.316667	14.63855
3.333333	20.66423
3.35	28.16189
3.366667	35.77116
3.383333	42.03552
3.4	46.04841
3.416667	47.67194
3.433333	47.62907
3.45	48.63855
3.466667	59.13445
3.483333	98.28661
3.5	194.4672
3.516667	369.8344
3.533333	620.335
3.55	913.0226
3.566667	1205.857
3.583333	1467.72
3.6	1679.658
3.616667	1825.037
3.633333	1887.275
3.65	1858.567
3.666667	1748.191
3.683333	1581.08
3.7	1387.86
3.716667	1194.366
3.733333	1016.304
3.75	859.6123
3.766667	724.2208
3.783333	608.2463
3.8	510.4134
3.816667	430.4187
3.833333	368.3124
3.85	323.3074
3.866667	292.3394
3.883333	269.8723
3.9	249.9554
3.916667	228.4322
3.933333	202.8481
3.95	172.0238
3.966667	137.4709
3.983333	103.9596
4	76.53045
4.016667	57.0241
4.033333	44.13005
4.05	35.68708
4.066667	30.04802
4.083333	26.14245
4.1	23.25573
4.116667	20.93054
4.133333	18.95534
4.15	17.29489
4.166667	15.96589
4.183333	14.95417
4.2	14.21599
4.216667	13.69353
4.233333	13.32253
4.25	13.0448
4.266667	12.8155
4.283333	12.61296
4.3	12.43493
4.316667	12.2986
4.333333	12.22927
4.35	12.24099
4.366667	12.33474
4.383333	12.49685
4.4	12.69597
4.416667	12.89128
4.433333	13.03913
4.45	13.08913
4.466667	12.9863
4.483333	12.703
4.5	12.26286
4.516667	11.71833
4.533333	11.11081
4.55	10.46482
4.566667	9.798604
4.583333	9.137568
4.6	8.505733
4.616667	7.926632
4.633333	7.419991
4.65	6.998507
4.666667	6.675754
4.683333	6.473996
4.7	6.410715
4.716667	6.464816
4.733333	6.570285
4.75	6.649777
4.766667	6.656222
4.783333	6.586984
4.8	6.469504
4.816667	6.343527
4.833333	6.239425
4.85	6.166183
4.866667	6.11589
4.883333	6.080832
4.9	6.063742
4.916667	6.079659
4.933333	6.151632
4.95	6.289035
4.966667	6.472336
4.983333	6.652609
5	6.783273
5.016667	6.840402
5.033333	6.83093
5.05	6.775558
5.066667	6.695188
5.083333	6.615304
5.1	6.56218
5.116667	6.539621
5.133333	6.521848
5.15	6.480832
5.166667	6.404562
5.183333	6.290109
5.2	6.128195
5.216667	5.91589
5.233333	5.666281
5.25	5.401535
5.266667	5.138253
5.283333	4.887668
5.3	4.662082
5.316667	4.467062
5.333333	4.296847
5.35	4.140499
5.366667	3.998702
5.383333	3.885714
5.4	3.81882
5.416667	3.804366
5.433333	3.835812
5.45	3.901241
5.466667	3.981124
5.483333	4.048409
5.5	4.074581
5.516667	4.053585
5.533333	4.003097
5.55	3.958272
5.566667	3.954854
5.583333	4.021261
5.6	4.16628
5.616667	4.367452
5.633333	4.574777
5.65	4.733273
5.666667	4.805636
5.683333	4.786398
5.7	4.694992
5.716667	4.562472
5.733333	4.419698
5.75	4.297726
5.766667	4.21589
5.783333	4.181026
5.8	4.187667
5.816667	4.234835
5.833333	4.315694
5.85	4.412472
5.866667	4.50378
5.883333	4.574972
5.9	4.619503
5.916667	4.631222
5.933333	4.604465
5.95	4.533761
5.966667	4.417452
5.983333	4.265499
6	4.093526
6.016667	3.91296
6.033333	3.733566
6.05	3.563741
6.066667	3.406124
6.083333	3.261495
6.1	3.138155
6.116667	3.044503
6.133333	2.978194
6.15	2.930733
6.166667	2.894698
6.183333	2.861983
6.2	2.82585
6.216667	2.782588
6.233333	2.734542
6.25	2.687667
6.266667	2.639132
6.283333	2.580831
6.3	2.510909
6.316667	2.442061
6.333333	2.386592
6.35	2.343721
6.366667	2.307296
6.383333	2.272921
6.4	2.238448
6.416667	2.205733
6.433333	2.181026
6.45	2.165108
6.466667	2.154659
6.483333	2.148897
6.5	2.155733
6.516667	2.176534
6.533333	2.199874
6.55	2.220284
6.566667	2.23835
6.583333	2.257003
6.6	2.263253
6.616667	2.24919
6.633333	2.216182
6.65	2.16921
6.666667	2.113155
6.683333	2.052022
6.7	1.991378
6.716667	1.9321
6.733333	1.874776
6.75	1.820382
6.766667	1.767745
6.783333	1.714132
6.8	1.662276
6.816667	1.624776
6.833333	1.609444
6.85	1.615987
6.866667	1.644503
6.883333	1.696846
6.9	1.770772
6.916667	1.860128
6.933333	1.957979
6.95	2.054171
6.966667	2.131124
6.983333	2.177901
7	2.192842
7.016667	2.176534
7.033333	2.129268
7.05	2.063643
7.066667	2.004268
7.083333	1.963253
7.1	1.934151
7.116667	1.905733
7.133333	1.872725
7.15	1.838936
7.166667	1.812178
7.183333	1.799483
7.2	1.797628
7.216667	1.80046
7.233333	1.806319
7.25	1.811885
7.266667	1.809639
7.283333	1.796651
7.3	1.783565
7.316667	1.786592
7.333333	1.807784
7.35	1.84128
7.366667	1.892452
7.383333	1.973702
7.4	2.078194
7.416667	2.180733
7.433333	2.260811
7.45	2.315011
7.466667	2.339913
7.483333	2.326534
7.5	2.274776
7.516667	2.187276
7.533333	2.068038
7.55	1.93171
7.566667	1.8071
7.583333	1.711885
7.6	1.637569
7.616667	1.57087
7.633333	1.509542
7.65	1.456026
7.666667	1.4071
7.683333	1.363936
7.7	1.333663
7.716667	1.319796
7.733333	1.31794
7.75	1.321163
7.766667	1.323214
7.783333	1.320772
7.8	1.319307
7.816667	1.325362
7.833333	1.336885
7.85	1.345968
7.866667	1.353194
7.883333	1.357686
7.9	1.353878
7.916667	1.346651
7.933333	1.348507
7.95	1.365108
7.966667	1.387276
7.983333	1.401339
8	1.407881
8.016667	1.416964
8.033333	1.435909
8.05	1.461788
8.066667	1.489913
8.083333	1.518624
8.1	1.546846
8.116667	1.577706
8.133333	1.620674
8.15	1.681417
8.166667	1.762667
8.183333	1.864913
8.2	1.986006
8.216667	2.119503
8.233333	2.261592
8.25	2.41169
8.266667	2.563546
8.283333	2.703096
8.3	2.815499
8.316667	2.882003
8.333333	2.891085
8.35	2.843135
8.366667	2.75046
8.383333	2.625167
8.4	2.481026
8.416667	2.331221
8.433333	2.184737
8.45	2.04255
8.466667	1.902608
8.483333	1.766475
8.5	1.638057
8.516667	1.521065
8.533333	1.426729
8.55	1.360811
8.566667	1.314718
8.583333	1.274385
8.6	1.234151
8.616667	1.195284
8.633333	1.155831
8.65	1.112862
8.666667	1.066182
8.683333	1.025753
8.7	1.007491
8.716667	1.014913
8.733333	1.029854
8.75	1.033858
8.766667	1.03044
8.783333	1.032784
8.8	1.043038
8.816667	1.05085
8.833333	1.056124
8.85	1.065401
8.866667	1.081221
8.883333	1.102608
8.9	1.127608
8.916667	1.154659
8.933333	1.186397
8.95	1.225655
8.966667	1.271163
8.983333	1.312862
9	1.34626
9.016667	1.383858
9.033333	1.445186
9.05	1.536299
9.066667	1.646944
9.083333	1.771846
9.1	1.912374
9.116667	2.061788
9.133333	2.20085
9.15	2.312569
9.166667	2.389815
9.183333	2.430147
9.2	2.435421
9.216667	2.409835
9.233333	2.356026
9.25	2.274678
9.266667	2.166866
9.283333	2.04001
9.3	1.9071
9.316667	1.782589
9.333333	1.673604
9.35	1.573799
9.366667	1.47712
9.383333	1.382198
9.4	1.293233
9.416667	1.213936
9.433333	1.146651
9.45	1.089718
9.466667	1.039229
9.483333	0.9947956
9.5	0.9584675
9.516667	0.9272175
9.533333	0.8973347
9.55	0.8712605
9.566667	0.8524128
9.583333	0.8427448
9.6	0.8400105
9.616667	0.8387409
9.633333	0.8346394
9.65	0.8298542
9.666667	0.8323933
9.683333	0.843819
9.7	0.8576862
9.716667	0.8708698
9.733333	0.8877643
9.75	0.9095417
9.766667	0.9304401
9.783333	0.9499714
9.8	0.9800495
9.816667	1.022335
9.833333	1.067257
9.85	1.109542
9.866667	1.151827
9.883333	1.193428
9.9	1.227217
9.916667	1.248311
9.933333	1.253487
9.95	1.240987
9.966667	1.216085
9.983333	1.183663
10	1.13962
10.01667	1.074581
10.03333	0.9887409
10.05	0.8973347
10.06667	0.8145221
10.08333	0.7450886
10.1	0.6891316
10.11667	0.6439167
10.13333	0.6047565
10.15	0.5689167
10.16667	0.5391315
10.18333	0.5186237
10.2	0.5028034
10.21667	0.4811237
10.23333	0.4515339
10.25	0.4278034
10.26667	0.4201862
10.28333	0.4226276
10.3	0.4263386
10.31667	0.4294636
10.33333	0.4307331
10.35	0.4258503
10.36667	0.4166706
10.38333	0.4092487
10.4	0.4013386
10.41667	0.3891315
10.43333	0.3793659
10.45	0.3783894
10.46667	0.3796589
10.48333	0.378194
10.5	0.3805378
10.51667	0.3929401
10.53333	0.4087605
10.55	0.4155964
10.56667	0.4073933
10.58333	0.3918659
10.6	0.3822956
10.61667	0.3823933
10.63333	0.3865925
10.65	0.3890339
10.66667	0.3889362
10.68333	0.38503
10.7	0.378487
10.71667	0.3712605
10.73333	0.3653034
10.75	0.3610066
10.76667	0.3617878
10.78333	0.3667683
10.8	0.3700886
10.81667	0.3701862
10.83333	0.369698
10.85	0.3688191
10.86667	0.365987
10.88333	0.3617878
10.9	0.3607136
10.91667	0.3648151
10.93333	0.3712605
10.95	0.3737019
10.96667	0.3669636
10.98333	0.3598347
11	0.3614948
11.01667	0.3705769
11.03333	0.3738972
11.05	0.3613972
11.06667	0.3459675
11.08333	0.3431354
11.1	0.3554401
11.11667	0.3699909
11.13333	0.3783894
11.15	0.3820027
11.16667	0.3861042
11.18333	0.3899128
11.2	0.3905964
11.21667	0.3913776
11.23333	0.3918659
11.25	0.3903034
11.26667	0.3852253
11.28333	0.3810261
11.3	0.3823933
11.31667	0.3858112
11.33333	0.3862995
11.35	0.3845417
11.36667	0.388155
11.38333	0.3980183
11.4	0.4078816
11.41667	0.4110065
11.43333	0.4079792
11.45	0.4026081
11.46667	0.39753
11.48333	0.3955769
11.5	0.3997761
11.51667	0.4112019
11.53333	0.4242878
11.55	0.4302448
11.56667	0.4286823
11.58333	0.4248737
11.6	0.4237995
11.61667	0.4279987
11.63333	0.4394245
11.65	0.4575886
11.66667	0.4766316
11.68333	0.4943073
11.7	0.5141315
11.71667	0.5365925
11.73333	0.5624714
11.75	0.5910847
11.76667	0.6200886
11.78333	0.6496784
11.8	0.681905
11.81667	0.7187214
11.83333	0.7593464
11.85	0.7994831
11.86667	0.8376667
11.88333	0.8724324
11.9	0.9065143
11.91667	0.937862
11.93333	0.9591511
11.95	0.9654987
11.96667	0.9624714
11.98333	0.9617878
12	0.9672565
12.01667	0.9701862
12.03333	0.9591511
12.05	0.9340534
12.06667	0.9038776
12.08333	0.8763386
12.1	0.8496784
12.11667	0.8233112
12.13333	0.7984089
12.15	0.7751667
12.16667	0.753194
12.18333	0.7332722
12.2	0.7213581
12.21667	0.7148151
12.23333	0.7080768
12.25	0.7009479
12.26667	0.6957722
12.28333	0.6904011
12.3	0.6835651
12.31667	0.6742878
12.33333	0.6649128
12.35	0.6604206
12.36667	0.6616901
12.38333	0.662569
12.4	0.6624714
12.41667	0.6669636
12.43333	0.6701862
12.45	0.6565143
12.46667	0.6312214
12.48333	0.6140339
12.5	0.6164753
12.51667	0.6248738
12.53333	0.6296589
12.55	0.6356159
12.56667	0.643819
12.58333	0.6426471
12.6	0.6306354
12.61667	0.62253
12.63333	0.6294636
12.65	0.6397175
12.66667	0.6414753
12.68333	0.63503
12.7	0.6311237
12.71667	0.6361042
12.73333	0.6458699
12.75	0.6511433
12.76667	0.6497761
12.78333	0.6445026
12.8	0.6400105
12.81667	0.6368855
12.83333	0.6351277
12.85	0.6342487
12.86667	0.6311237
12.88333	0.6228229
12.9	0.6127644
12.91667	0.61003
12.93333	0.6201862
12.95	0.6380574
12.96667	0.6484089
12.98333	0.6425495
13	0.6270221
13.01667	0.6148151
13.03333	0.6142292
13.05	0.6233112
13.06667	0.6363972
13.08333	0.6466511
13.1	0.6526081
13.11667	0.6547565
13.13333	0.6565143
13.15	0.6588581
13.16667	0.6630573
13.18333	0.6713581
13.2	0.6833698
13.21667	0.6946003
13.23333	0.6964558
13.25	0.6889362
13.26667	0.6822956
13.28333	0.6874714
13.3	0.7064167
13.31667	0.7311237
13.33333	0.7490925
13.35	0.7546589
13.36667	0.7532917
13.38333	0.7524128
13.4	0.7516316
13.41667	0.7486042
13.43333	0.7480183
13.45	0.7558308
13.46667	0.7682331
13.48333	0.7783893
13.5	0.7823933
13.51667	0.7800495
13.53333	0.7742878
13.55	0.7714558
13.56667	0.7781941
13.58333	0.794112
13.6	0.8114948
13.61667	0.8213581
13.63333	0.8199909
13.65	0.8094441
13.66667	0.7993854
13.68333	0.7938191
13.7	0.7868854
13.71667	0.77878
13.73333	0.7723347
13.75	0.772237
13.76667	0.7737018
13.78333	0.7715534
13.8	0.7676471
13.81667	0.7660847
13.83333	0.7666706
13.85	0.765694
13.86667	0.7601277
13.88333	0.7516316
13.9	0.7457722
13.91667	0.7523152
13.93333	0.7635456
13.95	0.7672566
13.96667	0.7592487
13.98333	0.7512409
14	0.7549518
14.01667	0.7658893
14.03333	0.7721394
14.05	0.7693073
14.06667	0.7622761
14.08333	0.7552449
14.1	0.7489948
14.11667	0.7457722
14.13333	0.7470417
14.15	0.7527058
14.16667	0.7605183
14.18333	0.7678425
14.2	0.7681354
14.21667	0.762862
14.23333	0.7567097
14.25	0.7521198
14.26667	0.7479206
14.28333	0.7496784
14.3	0.7571003
14.31667	0.7645222
14.33333	0.7668659
14.35	0.766573
14.36667	0.7677448
14.38333	0.7731159
14.4	0.7790729
14.41667	0.7834675
14.43333	0.7837604
14.45	0.7779987
14.46667	0.768819
14.48333	0.765987
14.5	0.7763386
14.51667	0.7931355
14.53333	0.8029011
14.55	0.8042682
14.56667	0.8025104
14.58333	0.8020222
14.6	0.8045613
14.61667	0.8108112
14.63333	0.8183308
14.65	0.8207722
14.66667	0.8186237
14.68333	0.815694
14.7	0.812569
14.71667	0.809737
14.73333	0.8129597
14.75	0.8248737
14.76667	0.8395222
14.78333	0.847237
14.8	0.8488972
14.81667	0.8449909
14.83333	0.8373737
14.85	0.8297566
14.86667	0.8283893
14.88333	0.8301471
14.9	0.8356159
14.91667	0.844698
14.93333	0.8517292
14.95	0.8527058
14.96667	0.850362
14.98333	0.8497761
15	0.8531941
15.01667	0.863155
15.03333	0.8785847
15.05	0.8901081
15.06667	0.8934284
15.08333	0.893819
15.1	0.8993855
15.11667	0.9075886
15.13333	0.909737
15.15	0.9061238
15.16667	0.9029011
15.18333	0.9025105
15.2	0.9008503
15.21667	0.8991901
15.23333	0.9047565
15.25	0.9163777
15.26667	0.925362
15.28333	0.9258503
15.3	0.9207722
15.31667	0.9145222
15.33333	0.9130573
15.35	0.9135456
15.36667	0.9110066
15.38333	0.9042683
15.4	0.9011433
15.41667	0.907198
15.43333	0.9175495
15.45	0.9246784
15.46667	0.9298542
15.48333	0.9368855
15.5	0.9423542
15.51667	0.9433308
15.53333	0.9445027
15.55	0.9497761
15.56667	0.953487
15.58333	0.9501667
15.6	0.9449909
15.61667	0.9456745
15.63333	0.9517292
15.65	0.9591511
15.66667	0.9632527
15.68333	0.9604206
15.7	0.9518269
15.71667	0.9469441
15.73333	0.9550495
15.75	0.9737995
15.76667	0.9897175
15.78333	0.9946003
15.8	0.9905964
15.81667	0.9843464
15.83333	0.9786823
15.85	0.9768268
15.86667	0.9820026
15.88333	0.9904011
15.9	0.9947956
15.91667	0.9950886
15.93333	0.9956745
15.95	0.9968464
15.96667	0.9982136
15.98333	1.002413
16	1.007784
16.01667	1.006319
16.03333	0.9954792
16.05	0.9871784
16.06667	0.9922565
16.08333	1.00544
16.1	1.012471
16.11667	1.013643
16.13333	1.015694
16.15	1.023409
16.16667	1.034542
16.18333	1.047823
16.2	1.060225
16.21667	1.069014
16.23333	1.069796
16.25	1.063741
16.26667	1.063936
16.28333	1.078682
16.3	1.098702
16.31667	1.1113
16.33333	1.1196
16.35	1.136397
16.36667	1.16628
16.38333	1.206417
16.4	1.24919
16.41667	1.292061
16.43333	1.338253
16.45	1.389815
16.46667	1.441671
16.48333	1.482979
16.5	1.513057
16.51667	1.536104
16.53333	1.557686
16.55	1.572725
16.56667	1.576339
16.58333	1.5696
16.6	1.557589
16.61667	1.542549
16.63333	1.524874
16.65	1.507491
16.66667	1.48796
16.68333	1.46335
16.7	1.433077
16.71667	1.401046
16.73333	1.37253
16.75	1.34919
16.76667	1.327803
16.78333	1.303096
16.8	1.273995
16.81667	1.249874
16.83333	1.236593
16.85	1.231124
16.86667	1.223116
16.88333	1.209346
16.9	1.192549
16.91667	1.180245
16.93333	1.173897
16.95	1.170967
16.96667	1.168233
16.98333	1.164717
17	1.165987
17.01667	1.170479
17.03333	1.172921
17.05	1.169503
17.06667	1.159639
17.08333	1.150167
17.1	1.144893
17.11667	1.143624
17.13333	1.142452
17.15	1.138741
17.16667	1.135128
17.18333	1.137764
17.2	1.147335
17.21667	1.157979
17.23333	1.162178
17.25	1.161495
17.26667	1.161007
17.28333	1.160714
17.3	1.159932
17.31667	1.160811
17.33333	1.16794
17.35	1.173116
17.36667	1.169307
17.38333	1.160518
17.4	1.160323
17.41667	1.17087
17.43333	1.179659
17.45	1.179659
17.46667	1.173311
17.48333	1.167452
17.5	1.163741
17.51667	1.163546
17.53333	1.169405
17.55	1.180635
17.56667	1.193721
17.58333	1.198702
17.6	1.194991
17.61667	1.191671
17.63333	1.193233
17.65	1.196846
17.66667	1.201339
17.68333	1.209542
17.7	1.218135
17.71667	1.2196
17.73333	1.21628
17.75	1.221358
17.76667	1.242647
17.78333	1.265596
17.8	1.274288
17.81667	1.271456
17.83333	1.269991
17.85	1.276436
17.86667	1.28669
17.88333	1.295675
17.9	1.301339
17.91667	1.308956
17.93333	1.319307
17.95	1.326632
17.96667	1.327413
17.98333	1.325362
18	1.326339
18.01667	1.334639
18.03333	1.347432
18.05	1.357979
18.06667	1.358858
18.08333	1.347823
18.1	1.330733
18.11667	1.320186
18.13333	1.318038
18.15	1.317257
18.16667	1.312374
18.18333	1.307198
18.2	1.306124
18.21667	1.309249
18.23333	1.313253
18.25	1.314229
18.26667	1.313253
18.28333	1.312862
18.3	1.311104
18.31667	1.303878
18.33333	1.296749
18.35	1.293917
18.36667	1.292257
18.38333	1.288643
18.4	1.290596
18.41667	1.302217
18.43333	1.315596
18.45	1.326143
18.46667	1.333956
18.48333	1.339424
18.5	1.340303
18.51667	1.335714
18.53333	1.331026
18.55	1.332589
18.56667	1.334249
18.58333	1.32878
18.6	1.322335
18.61667	1.321163
18.63333	1.324581
18.65	1.325264
18.66667	1.321651
18.68333	1.318038
18.7	1.31794
18.71667	1.322042
18.73333	1.326143
18.75	1.326339
18.76667	1.326046
18.78333	1.331221
18.8	1.33835
18.81667	1.338057
18.83333	1.332491
18.85	1.330147
18.86667	1.333272
18.88333	1.339913
18.9	1.348214
18.91667	1.357979
18.93333	1.364815
18.95	1.365303
18.96667	1.358858
18.98333	1.347432
19	1.338155
19.01667	1.336104
19.03333	1.343233
19.05	1.356124
19.06667	1.368135
19.08333	1.376241
19.1	1.378096
19.11667	1.377022
19.13333	1.378389
19.15	1.383663
19.16667	1.384542
19.18333	1.37546
19.2	1.365694
19.21667	1.366768
19.23333	1.378292
19.25	1.388741
19.26667	1.394112
19.28333	1.396456
19.3	1.399483
19.31667	1.401534
19.33333	1.399581
19.35	1.394893
19.36667	1.392061
19.38333	1.392452
19.4	1.391964
19.41667	1.388546
19.43333	1.385616
19.45	1.385714
19.46667	1.386397
19.48333	1.384542
19.5	1.381221
19.51667	1.384542
19.53333	1.399776
19.55	1.42126
19.56667	1.432296
19.58333	1.42878
19.6	1.420186
19.61667	1.418331
19.63333	1.423116
19.65	1.430928
19.66667	1.439522
19.68333	1.446749
19.7	1.450655
19.71667	1.452803
19.73333	1.452706
19.75	1.450167
19.76667	1.447139
19.78333	1.442159
19.8	1.432979
19.81667	1.4238
19.83333	1.421944
19.85	1.427217
19.86667	1.431417
19.88333	1.435421
19.9	1.442159
19.91667	1.448018
19.93333	1.448897
19.95	1.447725
19.96667	1.44626
19.98333	1.445382
20	1.450069
20.01667	1.462667
20.03333	1.475362
20.05	1.481124
20.06667	1.481417
20.08333	1.478585
20.1	1.478878
20.11667	1.488546
20.13333	1.504952
20.15	1.516182
20.16667	1.520186
20.18333	1.518135
20.2	1.511202
20.21667	1.501631
20.23333	1.495382
20.25	1.493135
20.26667	1.494307
20.28333	1.503585
20.3	1.5196
20.31667	1.533663
20.33333	1.534932
20.35	1.523507
20.36667	1.511007
20.38333	1.511397
20.4	1.526436
20.41667	1.544893
20.43333	1.554561
20.45	1.552608
20.46667	1.543721
20.48333	1.534151
20.5	1.532296
20.51667	1.54294
20.53333	1.5613
20.55	1.576241
20.56667	1.58337
20.58333	1.58669
20.6	1.592354
20.61667	1.599385
20.63333	1.601436
20.65	1.598702
20.66667	1.598311
20.68333	1.605147
20.7	1.618819
20.71667	1.634444
20.73333	1.645577
20.75	1.651143
20.76667	1.652803
20.78333	1.652608
20.8	1.647921
20.81667	1.63962
20.83333	1.630245
20.85	1.621846
20.86667	1.618233
20.88333	1.619893
20.9	1.624776
20.91667	1.624971
20.93333	1.618331
20.95	1.612081
20.96667	1.611593
20.98333	1.613839
21	1.61296
21.01667	1.606905
21.03333	1.599678
21.05	1.595284
21.06667	1.595284
21.08333	1.60046
21.1	1.606026
21.11667	1.60671
21.13333	1.602803
21.15	1.597432
21.16667	1.594014
21.18333	1.592745
21.2	1.593624
21.21667	1.596358
21.23333	1.599678
21.25	1.601436
21.26667	1.598507
21.28333	1.595381
21.3	1.597335
21.31667	1.602803
21.33333	1.606514
21.35	1.610714
21.36667	1.621651
21.38333	1.635323
21.4	1.642061
21.41667	1.643819
21.43333	1.646553
21.45	1.650264
21.46667	1.650948
21.48333	1.646651
21.5	1.637374
21.51667	1.627413
21.53333	1.622725
21.55	1.627706
21.56667	1.633077
21.58333	1.632003
21.6	1.626339
21.61667	1.625655
21.63333	1.634737
21.65	1.6488
21.66667	1.660616
21.68333	1.666378
21.7	1.662862
21.71667	1.65505
21.73333	1.647823
21.75	1.647139
21.76667	1.651241
21.78333	1.655342
21.8	1.659639
21.81667	1.6696
21.83333	1.683565
21.85	1.694796
21.86667	1.700069
21.88333	1.702022
21.9	1.70251
21.91667	1.698116
21.93333	1.690987
21.95	1.687667
21.96667	1.690303
21.98333	1.694405
22	1.6946
22.01667	1.688936
22.03333	1.681417
22.05	1.678194
22.06667	1.682979
22.08333	1.693624
22.1	1.710225
22.11667	1.726925
22.13333	1.733956
22.15	1.729952
22.16667	1.726729
22.18333	1.73171
22.2	1.736788
22.21667	1.731612
22.23333	1.720186
22.25	1.714229
22.26667	1.716964
22.28333	1.723214
22.3	1.727217
22.31667	1.727901
22.33333	1.727217
22.35	1.727217
22.36667	1.731807
22.38333	1.738546
22.4	1.74128
22.41667	1.740596
22.43333	1.743917
22.45	1.754659
22.46667	1.761104
22.48333	1.758272
22.5	1.751143
22.51667	1.747823
22.53333	1.75378
22.55	1.761983
22.56667	1.764815
22.58333	1.761788
22.6	1.762764
22.61667	1.774776
22.63333	1.790889
22.65	1.80085
22.66667	1.804659
22.68333	1.806514
22.7	1.804659
22.71667	1.799678
22.73333	1.796846
22.75	1.797921
22.76667	1.79587
22.78333	1.787471
22.8	1.782003
22.81667	1.782686
22.83333	1.785421
22.85	1.791378
22.86667	1.807296
22.88333	1.832491
22.9	1.854268
22.91667	1.860518
22.93333	1.857296
22.95	1.855245
22.96667	1.857296
22.98333	1.859249
23	1.858077
23.01667	1.856417
23.03333	1.858077
23.05	1.860225
23.06667	1.85876
23.08333	1.854952
23.1	1.8571
23.11667	1.862764
23.13333	1.862471
23.15	1.854561
23.16667	1.849483
23.18333	1.855147
23.2	1.86501
23.21667	1.865792
23.23333	1.854952
23.25	1.845772
23.26667	1.850557
23.28333	1.864327
23.3	1.874971
23.31667	1.880049
23.33333	1.886593
23.35	1.894405
23.36667	1.895186
23.38333	1.886397
23.4	1.876729
23.41667	1.871651
23.43333	1.871553
23.45	1.874288
23.46667	1.88171
23.48333	1.893819
23.5	1.90671
23.51667	1.916475
23.53333	1.919112
23.55	1.918917
23.56667	1.918721
23.58333	1.918721
23.6	1.917354
23.61667	1.917452
23.63333	1.917452
23.65	1.911885
23.66667	1.905831
23.68333	1.909737
23.7	1.923018
23.71667	1.932589
23.73333	1.930635
23.75	1.922042
23.76667	1.920772
23.78333	1.932003
23.8	1.943819
23.81667	1.942647
23.83333	1.931026
23.85	1.920382
23.86667	1.91794
23.88333	1.922725
23.9	1.934346
23.91667	1.948409
23.93333	1.959346
23.95	1.964132
23.96667	1.966964
23.98333	1.971749
24	1.977608
24.01667	1.979561
24.03333	1.977315
24.05	1.976632
24.06667	1.986006
24.08333	2.003389
24.1	2.017843
24.11667	2.023799
24.13333	2.029464
24.15	2.03796
24.16667	2.044698
24.18333	2.044307
24.2	2.042745
24.21667	2.044307
24.23333	2.047335
24.25	2.049288
24.26667	2.050655
24.28333	2.049386
24.3	2.043428
24.31667	2.036299
24.33333	2.03337
24.35	2.036495
24.36667	2.043917
24.38333	2.047921
24.4	2.045089
24.41667	2.036202
24.43333	2.028096
24.45	2.023604
24.46667	2.025362
24.48333	2.032686
24.5	2.038936
24.51667	2.036202
24.53333	2.029366
24.55	2.03005
24.56667	2.038643
24.58333	2.046065
24.6	2.043917
24.61667	2.035616
24.63333	2.028487
24.65	2.029561
24.66667	2.03835
24.68333	2.045968
24.7	2.044991
24.71667	2.040401
24.73333	2.039229
24.75	2.038155
24.76667	2.033761
24.78333	2.031417
24.8	2.036788
24.81667	2.047432
24.83333	2.056612
24.85	2.065401
24.86667	2.070577
24.88333	2.068917
24.9	2.066475
24.91667	2.070089
24.93333	2.076534
24.95	2.077803
24.96667	2.075557
24.98333	2.074288
25	2.073214
25.01667	2.072237
25.03333	2.073995
25.05	2.076632
25.06667	2.078194
25.08333	2.077706
25.1	2.074385
25.11667	2.070772
25.13333	2.071749
25.15	2.077315
25.16667	2.087764
25.18333	2.099971
25.2	2.107393
25.21667	2.101241
25.23333	2.086104
25.25	2.07546
25.26667	2.076241
25.28333	2.079756
25.3	2.07751
25.31667	2.069893
25.33333	2.063057
25.35	2.061202
25.36667	2.063155
25.38333	2.068624
25.4	2.078194
25.41667	2.090596
25.43333	2.09421
25.45	2.086788
25.46667	2.076339
25.48333	2.073897
25.5	2.078975
25.51667	2.087374
25.53333	2.094112
25.55	2.100362
25.56667	2.107784
25.58333	2.115889
25.6	2.12087
25.61667	2.122823
25.63333	2.126143
25.65	2.131221
25.66667	2.139132
25.68333	2.149874
25.7	2.160616
25.71667	2.167159
25.73333	2.162862
25.75	2.155928
25.76667	2.151632
25.78333	2.151729
25.8	2.155147
25.81667	2.162862
25.83333	2.174093
25.85	2.181124
25.86667	2.179464
25.88333	2.169014
25.9	2.157491
25.91667	2.153389
25.93333	2.158077
25.95	2.167745
25.96667	2.173995
25.98333	2.172237
26	2.161104
26.01667	2.151632
26.03333	2.153682
26.05	2.16462
26.06667	2.16921
26.08333	2.162179
26.1	2.156124
26.11667	2.153389
26.13333	2.148507
26.15	2.143721
26.16667	2.149385
26.18333	2.164717
26.2	2.174581
26.21667	2.171456
26.23333	2.162862
26.25	2.162081
26.26667	2.171358
26.28333	2.185421
26.3	2.199581
26.31667	2.207393
26.33333	2.207393
26.35	2.206221
26.36667	2.207881
26.38333	2.21169
26.4	2.216866
26.41667	2.222921
26.43333	2.22546
26.45	2.222628
26.46667	2.217647
26.48333	2.214522
26.5	2.21462
26.51667	2.220772
26.53333	2.231026
26.55	2.23796
26.56667	2.240206
26.58333	2.242354
26.6	2.250069
26.61667	2.260225
26.63333	2.269503
26.65	2.27585
26.66667	2.277315
26.68333	2.272042
26.7	2.260323
26.71667	2.248116
26.73333	2.243331
26.75	2.243819
26.76667	2.24421
26.78333	2.24587
26.8	2.254366
26.81667	2.263057
26.83333	2.266475
26.85	2.265596
26.86667	2.268331
26.88333	2.27546
26.9	2.282588
26.91667	2.287276
26.93333	2.292647
26.95	2.299483
26.96667	2.307491
26.98333	2.317159
27	2.326339
27.01667	2.331612
27.03333	2.330831
27.05	2.326143
27.06667	2.321456
27.08333	2.319503
27.1	2.323018
27.11667	2.332491
27.13333	2.343428
27.15	2.349581
27.16667	2.353878
27.18333	2.363448
27.2	2.377413
27.21667	2.386885
27.23333	2.391085
27.25	2.396456
27.26667	2.403585
27.28333	2.406905
27.3	2.405245
27.31667	2.402315
27.33333	2.397628
27.35	2.385518
27.36667	2.372335
27.38333	2.372139
27.4	2.382491
27.41667	2.387374
27.43333	2.381905
27.45	2.369796
27.46667	2.359346
27.48333	2.355245
27.5	2.361104
27.51667	2.371944
27.53333	2.377511
27.55	2.374581
27.56667	2.371163
27.58333	2.374385
27.6	2.378292
27.61667	2.377413
27.63333	2.374874
27.65	2.377901
27.66667	2.383858
27.68333	2.381807
27.7	2.371846
27.71667	2.365206
27.73333	2.364717
27.75	2.366378
27.76667	2.371358
27.78333	2.383272
27.8	2.393038
27.81667	2.393038
27.83333	2.387862
27.85	2.387374
27.86667	2.391671
27.88333	2.393233
27.9	2.392256
27.91667	2.396846
27.93333	2.408175
27.95	2.417159
27.96667	2.41296
27.98333	2.401436
28	2.390792
28.01667	2.388253
28.03333	2.396749
28.05	2.410714
28.06667	2.419503
28.08333	2.416768
28.1	2.410811
28.11667	2.40671
28.13333	2.403585
28.15	2.400753
28.16667	2.399288
28.18333	2.396944
28.2	2.392843
28.21667	2.39587
28.23333	2.409639
28.25	2.425362
28.26667	2.434542
28.28333	2.440987
28.3	2.443038
28.31667	2.436885
28.33333	2.427022
28.35	2.42546
28.36667	2.43171
28.38333	2.438155
28.4	2.443233
28.41667	2.449385
28.43333	2.454952
28.45	2.453975
28.46667	2.451632
28.48333	2.459737
28.5	2.479268
28.51667	2.49128
28.53333	2.482491
28.55	2.467843
28.56667	2.468526
28.58333	2.483175
28.6	2.494796
28.61667	2.49626
28.63333	2.493331
28.65	2.49128
28.66667	2.490206
28.68333	2.487276
28.7	2.481612
28.71667	2.477999
28.73333	2.479952
28.75	2.483858
28.76667	2.486006
28.78333	2.485518
28.8	2.480831
28.81667	2.475557
28.83333	2.476827
28.85	2.484346
28.86667	2.494405
28.88333	2.505049
28.9	2.51462
28.91667	2.521651
28.93333	2.526827
28.95	2.535323
28.96667	2.548604
28.98333	2.558956
29	2.560616
29.01667	2.551436
29.03333	2.53669
29.05	2.525264
29.06667	2.520577
29.08333	2.520772
29.1	2.521358
29.11667	2.523799
29.13333	2.53044
29.15	2.541964
29.16667	2.552804
29.18333	2.555342
29.2	2.543721
29.21667	2.52712
29.23333	2.523116
29.25	2.538936
29.26667	2.558858
29.28333	2.565206
29.3	2.562667
29.31667	2.565792
29.33333	2.578292
29.35	2.587276
29.36667	2.579659
29.38333	2.561885
29.4	2.54753
29.41667	2.542842
29.43333	2.544503
29.45	2.548018
29.46667	2.556612
29.48333	2.572725
29.5	2.586495
29.51667	2.584639
29.53333	2.571456
29.55	2.561788
29.56667	2.560616
29.58333	2.566768
29.6	2.580831
29.61667	2.601729
29.63333	2.616866
29.65	2.616378
29.66667	2.605245
29.68333	2.59753
29.7	2.599483
29.71667	2.602315
29.73333	2.599581
29.75	2.593917
29.76667	2.596261
29.78333	2.6071
29.8	2.614717
29.81667	2.610128
29.83333	2.600167
29.85	2.599581
29.86667	2.611983
29.88333	2.628096
29.9	2.636983
29.91667	2.641671
29.93333	2.646358
29.95	2.65085
29.96667	2.653878
29.98333	2.659542
30	2.670089
30.01667	2.6863
30.03333	2.703389
30.05	2.714132
30.06667	2.711495
30.08333	2.701436
30.1	2.69753
30.11667	2.697921
30.13333	2.697139
30.15	2.693233
30.16667	2.691964
30.18333	2.694014
30.2	2.696749
30.21667	2.701925
30.23333	2.710128
30.25	2.715303
30.26667	2.715596
30.28333	2.711397
30.3	2.706221
30.31667	2.704659
30.33333	2.70876
30.35	2.715694
30.36667	2.723702
30.38333	2.737276
30.4	2.753878
30.41667	2.763546
30.43333	2.76169
30.45	2.748897
30.46667	2.734835
30.48333	2.723409
30.5	2.718038
30.51667	2.722432
30.53333	2.7363
30.55	2.750362
30.56667	2.754268
30.58333	2.748995
30.6	2.741866
30.61667	2.735421
30.63333	2.7321
30.65	2.734346
30.66667	2.739815
30.68333	2.743135
30.7	2.745479
30.71667	2.749483
30.73333	2.751925
30.75	2.748409
30.76667	2.739717
30.78333	2.730342
30.8	2.724385
30.81667	2.724679
30.83333	2.729757
30.85	2.737276
30.86667	2.741866
30.88333	2.740206
30.9	2.73962
30.91667	2.746749
30.93333	2.755929
30.95	2.756905
30.96667	2.754171
30.98333	2.756514
31	2.760421
31.01667	2.758077
31.03333	2.748214
31.05	2.738546
31.06667	2.736886
31.08333	2.74421
31.1	2.758272
31.11667	2.771749
31.13333	2.780928
31.15	2.785225
31.16667	2.787764
31.18333	2.789034
31.2	2.787667
31.21667	2.784542
31.23333	2.780635
31.25	2.776827
31.26667	2.775557
31.28333	2.780343
31.3	2.787374
31.31667	2.788546
31.33333	2.783468
31.35	2.775655
31.36667	2.77087
31.38333	2.774874
31.4	2.789229
31.41667	2.803096
31.43333	2.803585
31.45	2.796358
31.46667	2.797725
31.48333	2.810714
31.5	2.822139
31.51667	2.823995
31.53333	2.820479
31.55	2.817842
31.56667	2.815401
31.58333	2.810616
31.6	2.803585
31.61667	2.800948
31.63333	2.807882
31.65	2.820284
31.66667	2.82585
31.68333	2.821553
31.7	2.814913
31.71667	2.809639
31.73333	2.805928
31.75	2.803292
31.76667	2.80544
31.78333	2.810909
31.8	2.815889
31.81667	2.819405
31.83333	2.822237
31.85	2.825069
31.86667	2.827999
31.88333	2.835128
31.9	2.843721
31.91667	2.851241
31.93333	2.85876
31.95	2.867647
31.96667	2.877706
31.98333	2.879561
32	2.873409
32.01667	2.864815
32.03333	2.859932
32.05	2.861886
32.06667	2.868721
32.08333	2.879073
32.1	2.890303
32.11667	2.900362
32.13333	2.904464
32.15	2.902217
32.16667	2.89753
32.18333	2.894014
32.2	2.894405
32.21667	2.898799
32.23333	2.903292
32.25	2.905245
32.26667	2.903585
32.28333	2.897628
32.3	2.889522
32.31667	2.886202
32.33333	2.891182
32.35	2.899874
32.36667	2.908468
32.38333	2.915987
32.4	2.920186
32.41667	2.920577
32.43333	2.918721
32.45	2.91296
32.46667	2.909151
32.48333	2.915303
32.5	2.931221
32.51667	2.946065
32.53333	2.951534
32.55	2.949288
32.56667	2.947139
32.58333	2.948409
32.6	2.953389
32.61667	2.960616
32.63333	2.966866
32.65	2.968721
32.66667	2.962569
32.68333	2.951436
32.7	2.947237
32.71667	2.952218
32.73333	2.959835
32.75	2.959737
32.76667	2.953975
32.78333	2.954854
32.8	2.968526
32.81667	2.9863
32.83333	2.998116
32.85	3.002511
32.86667	3.00378
32.88333	3.004171
32.9	3.000167
32.91667	2.99294
32.93333	2.988546
32.95	2.987276
32.96667	2.985811
32.98333	2.981514
33	2.977315
33.01667	2.976827
33.03333	2.979561
33.05	2.984053
33.06667	2.989034
33.08333	2.996944
33.1	3.007003
33.11667	3.014229
33.13333	3.019112
33.15	3.027706
33.16667	3.040792
33.18333	3.048995
33.2	3.043721
33.21667	3.031905
33.23333	3.02751
33.25	3.032491
33.26667	3.041475
33.28333	3.047237
33.3	3.047335
33.31667	3.043721
33.33333	3.037667
33.35	3.030733
33.36667	3.023604
33.38333	3.021163
33.4	3.025753
33.41667	3.033858
33.43333	3.03796
33.45	3.036592
33.46667	3.032491
33.48333	3.030245
33.5	3.035421
33.51667	3.047042
33.53333	3.053975
33.55	3.051241
33.56667	3.045577
33.58333	3.046456
33.6	3.053194
33.61667	3.058272
33.63333	3.059835
33.65	3.061788
33.66667	3.064522
33.68333	3.066768
33.7	3.067549
33.71667	3.070577
33.73333	3.07878
33.75	3.090792
33.76667	3.099971
33.78333	3.105928
33.8	3.109932
33.81667	3.110128
33.83333	3.103682
33.85	3.094307
33.86667	3.085616
33.88333	3.078389
33.9	3.077315
33.91667	3.085518
33.93333	3.095186
33.95	3.094405
33.96667	3.08376
33.98333	3.078878
34	3.086885
34.01667	3.096846
34.03333	3.097237
34.05	3.093135
34.06667	3.092159
34.08333	3.0946
34.1	3.099288
34.11667	3.109053
34.13333	3.123507
34.15	3.134444
34.16667	3.136495
34.18333	3.134444
34.2	3.132296
34.21667	3.129659
34.23333	3.129756
34.25	3.138741
34.26667	3.155147
34.28333	3.168135
34.3	3.169698
34.31667	3.16296
34.33333	3.1571
34.35	3.155245
34.36667	3.159737
34.38333	3.171749
34.4	3.184249
34.41667	3.190792
34.43333	3.18962
34.45	3.182296
34.46667	3.172335
34.48333	3.16335
34.5	3.162081
34.51667	3.170479
34.53333	3.178292
34.55	3.179659
34.56667	3.174093
34.58333	3.170968
34.6	3.177901
34.61667	3.187276
34.63333	3.188057
34.65	3.18376
34.66667	3.184053
34.68333	3.18962
34.7	3.191475
34.71667	3.189229
34.73333	3.188643
34.75	3.190792
34.76667	3.193135
34.78333	3.195186
34.8	3.198897
34.81667	3.204756
34.83333	3.211885
34.85	3.216964
34.86667	3.220381
34.88333	3.223506
34.9	3.227706
34.91667	3.232296
34.93333	3.234346
34.95	3.229854
34.96667	3.22253
34.98333	3.222823
35	3.234151
35.01667	3.248702
35.03333	3.257784
35.05	3.260518
35.06667	3.260714
35.08333	3.259151
35.1	3.256124
35.11667	3.252803
35.13333	3.250948
35.15	3.251436
35.16667	3.252511
35.18333	3.250948
35.2	3.250264
35.21667	3.256026
35.23333	3.262569
35.25	3.259249
35.26667	3.247042
35.28333	3.235909
35.3	3.230538
35.31667	3.231319
35.33333	3.238546
35.35	3.252706
35.36667	3.270089
35.38333	3.286006
35.4	3.294405
35.41667	3.29001
35.43333	3.283077
35.45	3.286788
35.46667	3.299483
35.48333	3.307296
35.5	3.304952
35.51667	3.298018
35.53333	3.292842
35.55	3.286592
35.56667	3.277217
35.58333	3.269796
35.6	3.271456
35.61667	3.28044
35.63333	3.286495
35.65	3.283468
35.66667	3.279073
35.68333	3.282003
35.7	3.290303
35.71667	3.297237
35.73333	3.302413
35.75	3.310128
35.76667	3.314522
35.78333	3.308956
35.8	3.302413
35.81667	3.306319
35.83333	3.316085
35.85	3.318331
35.86667	3.312276
35.88333	3.308272
35.9	3.307589
35.91667	3.309249
35.93333	3.314522
35.95	3.324776
35.96667	3.330538
35.98333	3.328585
36	3.323897
36.01667	3.324092
36.03333	3.33044
36.05	3.338057
36.06667	3.340596
36.08333	3.339717
36.1	3.343624
36.11667	3.354073
36.13333	3.360811
36.15	3.3571
36.16667	3.351729
36.18333	3.350557
36.2	3.350362
36.21667	3.349581
36.23333	3.351632
36.25	3.355635
36.26667	3.353389
36.28333	3.347725
36.3	3.349483
36.31667	3.358663
36.33333	3.361983
36.35	3.352315
36.36667	3.343721
36.38333	3.350753
36.4	3.372823
36.41667	3.390499
36.43333	3.393233
36.45	3.391573
36.46667	3.399092
36.48333	3.408663
36.5	3.405635
36.51667	3.394893
36.53333	3.392061
36.55	3.399678
36.56667	3.406319
36.58333	3.411885
36.6	3.419014
36.61667	3.422139
36.63333	3.418135
36.65	3.411983
36.66667	3.413936
36.68333	3.420772
36.7	3.422432
36.71667	3.418721
36.73333	3.419893
36.75	3.431417
36.76667	3.447335
36.78333	3.459054
36.8	3.459737
36.81667	3.449483
36.83333	3.435811
36.85	3.42878
36.86667	3.433077
36.88333	3.443721
36.9	3.453975
36.91667	3.463741
36.93333	3.472237
36.95	3.476241
36.96667	3.47087
36.98333	3.459639
37	3.451143
37.01667	3.448409
37.03333	3.448604
37.05	3.451827
37.06667	3.462862
37.08333	3.478096
37.1	3.489815
37.11667	3.493038
37.13333	3.494014
37.15	3.49919
37.16667	3.506612
37.18333	3.510128
37.2	3.511592
37.21667	3.516182
37.23333	3.521358
37.25	3.521846
37.26667	3.51794
37.28333	3.513253
37.3	3.508858
37.31667	3.502803
37.33333	3.494503
37.35	3.491378
37.36667	3.494893
37.38333	3.503878
37.4	3.510323
37.41667	3.512667
37.43333	3.509346
37.45	3.502901
37.46667	3.498507
37.48333	3.502999
37.5	3.512178
37.51667	3.521358
37.53333	3.526925
37.55	3.527706
37.56667	3.523507
37.58333	3.515401
37.6	3.508077
37.61667	3.507686
37.63333	3.516573
37.65	3.526632
37.66667	3.533175
37.68333	3.539424
37.7	3.547628
37.71667	3.552413
37.73333	3.549678
37.75	3.537667
37.76667	3.524776
37.78333	3.521749
37.8	3.532296
37.81667	3.550167
37.83333	3.564718
37.85	3.572237
37.86667	3.571944
37.88333	3.566866
37.9	3.563546
37.91667	3.562862
37.93333	3.562081
37.95	3.561593
37.96667	3.565792
37.98333	3.573995
38	3.576437
38.01667	3.566573
38.03333	3.551046
38.05	3.545772
38.06667	3.555831
38.08333	3.573898
38.1	3.588253
38.11667	3.589913
38.13333	3.581905
38.15	3.573214
38.16667	3.572726
38.18333	3.580245
38.2	3.589425
38.21667	3.595675
38.23333	3.599288
38.25	3.601241
38.26667	3.601632
38.28333	3.602218
38.3	3.604855
38.31667	3.608468
38.33333	3.61462
38.35	3.621261
38.36667	3.625753
38.38333	3.62712
38.4	3.628292
38.41667	3.629464
38.43333	3.62878
38.45	3.629659
38.46667	3.629757
38.48333	3.624093
38.5	3.615304
38.51667	3.6113
38.53333	3.615206
38.55	3.623995
38.56667	3.632491
38.58333	3.634054
38.6	3.631027
38.61667	3.63298
38.63333	3.643624
38.65	3.652413
38.66667	3.648995
38.68333	3.634249
38.7	3.622042
38.71667	3.628585
38.73333	3.651437
38.75	3.673116
38.76667	3.678585
38.78333	3.674679
38.8	3.675362
38.81667	3.679855
38.83333	3.676046
38.85	3.660421
38.86667	3.646554
38.88333	3.64587
38.9	3.654464
38.91667	3.66257
38.93333	3.672237
38.95	3.686495
38.96667	3.700753
38.98333	3.705245
39	3.70173
39.01667	3.701534
39.03333	3.710128
39.05	3.721944
39.06667	3.732882
39.08333	3.738937
39.1	3.736788
39.11667	3.73298
39.13333	3.738839
39.15	3.758663
39.16667	3.784152
39.18333	3.805148
39.2	3.813937
39.21667	3.810323
39.23333	3.807589
39.25	3.820089
39.26667	3.850851
39.28333	3.891183
39.3	3.929269
39.31667	3.954171
39.33333	3.968429
39.35	3.982198
39.36667	4.002999
39.38333	4.028683
39.4	4.058663
39.41667	4.088253
39.43333	4.113448
39.45	4.138644
39.46667	4.166378
39.48333	4.193722
39.5	4.217159
39.51667	4.238839
39.53333	4.265304
39.55	4.299093
39.56667	4.341671
39.58333	4.384151
39.6	4.418331
39.61667	4.45085
39.63333	4.492354
39.65	4.538546
39.66667	4.577121
39.68333	4.607882
39.7	4.638741
39.71667	4.670968
39.73333	4.705929
39.75	4.744992
39.76667	4.790988
39.78333	4.840499
39.8	4.886788
39.81667	4.926437
39.83333	4.959933
39.85	4.992843
39.86667	5.030441
39.88333	5.073703
39.9	5.121163
39.91667	5.168429
39.93333	5.212179
39.95	5.253488
39.96667	5.295675
39.98333	5.343039
40	5.394894
40.01667	5.445382
40.03333	5.491378
40.05	5.535421
40.06667	5.579269
40.08333	5.619699
40.1	5.656027
40.11667	5.691769
40.13333	5.728195
40.15	5.765304
40.16667	5.806515
40.18333	5.853976
40.2	5.90505
40.21667	5.954464
40.23333	6.000363
40.25	6.043527
40.26667	6.090402
40.28333	6.147922
40.3	6.208566
40.31667	6.260226
40.33333	6.299484
40.35	6.33591
40.36667	6.377511
40.38333	6.41882
40.4	6.45759
40.41667	6.503293
40.43333	6.558469
40.45	6.612765
40.46667	6.656711
40.48333	6.695383
40.5	6.734641
40.51667	6.772824
40.53333	6.811496
40.55	6.855637
40.56667	6.905051
40.58333	6.955441
40.6	7.007688
40.61667	7.067746
40.63333	7.133565
40.65	7.200167
40.66667	7.261202
40.68333	7.314718
40.7	7.356319
40.71667	7.377706
40.73333	7.37839
40.75	7.363839
40.76667	7.34294
40.78333	7.317647
40.8	7.295675
40.81667	7.284347
40.83333	7.280929
40.85	7.27673
40.86667	7.269308
40.88333	7.260519
40.9	7.25339
40.91667	7.254366
40.93333	7.265695
40.95	7.28132
40.96667	7.294894
40.98333	7.303487
41	7.312276
41.01667	7.324288
41.03333	7.338449
41.05	7.347433
41.06667	7.349972
41.08333	7.353097
41.1	7.366769
41.11667	7.393038
41.13333	7.421456
41.15	7.439327
41.16667	7.448116
41.18333	7.467452
41.2	7.503683
41.21667	7.54255
41.23333	7.570382
41.25	7.59382
41.26667	7.616085
41.28333	7.631808
41.3	7.633761
41.31667	7.629659
41.33333	7.632003
41.35	7.643136
41.36667	7.657687
41.38333	7.673116
41.4	7.688351
41.41667	7.701241
41.43333	7.70671
41.45	7.707686
41.46667	7.712569
41.48333	7.72214
41.5	7.736691
41.51667	7.758761
41.53333	7.782491
41.55	7.800655
41.56667	7.811007
41.58333	7.823897
41.6	7.845187
41.61667	7.865304
41.63333	7.87546
41.65	7.872335
41.66667	7.869601
41.68333	7.879464
41.7	7.900265
41.71667	7.927022
41.73333	7.953292
41.75	7.974972
41.76667	7.986007
41.78333	7.991964
41.8	8.007979
41.81667	8.03591
41.83333	8.062081
41.85	8.073214
41.86667	8.078195
41.88333	8.090011
41.9	8.108858
41.91667	8.134054
41.93333	8.1613
41.95	8.185909
41.96667	8.201241
41.98333	8.205733
42	8.201534
42.01667	8.195578
42.03333	8.201534
42.05	8.226729
42.06667	8.25671
42.08333	8.273312
42.1	8.274484
42.11667	8.273604
42.13333	8.278585
42.15	8.2863
42.16667	8.2946
42.18333	8.303292
42.2	8.315597
42.21667	8.328878
42.23333	8.339913
42.25	8.345577
42.26667	8.349191
42.28333	8.356222
42.3	8.367941
42.31667	8.378683
42.33333	8.384347
42.35	8.389132
42.36667	8.391768
42.38333	8.389523
42.4	8.386397
42.41667	8.38669
42.43333	8.390987
42.45	8.399093
42.46667	8.408273
42.48333	8.412863
42.5	8.415792
42.51667	8.422628
42.53333	8.429854
42.55	8.43171
42.56667	8.428097
42.58333	8.424386
42.6	8.422726
42.61667	8.422823
42.63333	8.422823
42.65	8.419405
42.66667	8.413351
42.68333	8.409542
42.7	8.407784
42.71667	8.407882
42.73333	8.41003
42.75	8.419112
42.76667	8.432491
42.78333	8.442354
42.8	8.443624
42.81667	8.440304
42.83333	8.438742
42.85	8.433859
42.86667	8.416574
42.88333	8.384249
42.9	8.344405
42.91667	8.308859
42.93333	8.292647
42.95	8.301535
42.96667	8.329268
42.98333	8.368429
43	8.413057
43.01667	8.452414
43.03333	8.478878
43.05	8.500753
43.06667	8.527609
43.08333	8.555245
43.1	8.568429
43.11667	8.558761
43.13333	8.520967
43.15	8.451143
43.16667	8.345382
43.18333	8.205148
43.2	8.035811
43.21667	7.841085
43.23333	7.622335
43.25	7.380636
43.26667	7.120577
43.28333	6.851242
43.3	6.589914
43.31667	6.354172
43.33333	6.144406
43.35	5.947042
43.36667	5.756906
43.38333	5.576241
43.4	5.404953
43.41667	5.243234
43.43333	5.092941
43.45	4.952414
43.46667	4.810324
43.48333	4.66257
43.5	4.518624
43.51667	4.385324
43.53333	4.256222
43.55	4.124776
43.56667	3.996163
43.58333	3.878487
43.6	3.770577
43.61667	3.666769
43.63333	3.561788
43.65	3.456807
43.66667	3.356905
43.68333	3.262764
43.7	3.169307
43.71667	3.076241
43.73333	2.988936
43.75	2.906905
43.76667	2.825264
43.78333	2.74294
43.8	2.659639
43.81667	2.572139
43.83333	2.480928
43.85	2.392843
43.86667	2.316573
43.88333	2.250069
43.9	2.182296
43.91667	2.108468
43.93333	2.036495
43.95	1.973507
43.96667	1.915303
43.98333	1.856905
44	1.801632
44.01667	1.751729
44.03333	1.699581
44.05	1.644307
44.06667	1.592842
44.08333	1.548604
44.1	1.50671
44.11667	1.462178
44.13333	1.417452
44.15	1.373409
44.16667	1.329561
44.18333	1.285323
44.2	1.241964
44.21667	1.203096
44.23333	1.17253
44.25	1.150069
44.26667	1.132296
44.28333	1.110128
44.3	1.080343
44.31667	1.049776
44.33333	1.028487
44.35	1.014229
44.36667	0.9931355
44.38333	0.9634479
44.4	0.9377643
44.41667	0.9221393
44.43333	0.9073933
44.45	0.8872761
44.46667	0.8615925
44.48333	0.8394245
44.5	0.8247761
44.51667	0.8158894
44.53333	0.8029011
44.55	0.7837604
44.56667	0.7700886
44.58333	0.7636433
44.6	0.7535847
44.61667	0.7311237
44.63333	0.7047566
44.65	0.6831745
44.66667	0.6656941
44.68333	0.644112
44.7	0.6141316
44.71667	0.5825886
44.73333	0.5554401
44.75	0.5324909
44.76667	0.5139362
44.78333	0.4998737
44.8	0.4887409
44.81667	0.4747761
44.83333	0.4549519
44.85	0.4335651
44.86667	0.4121784
44.88333	0.3906941
44.9	0.3678425
44.91667	0.3479206
44.93333	0.3336628
44.95	0.32253
44.96667	0.3110065
44.98333	0.2996784
45	0.2939167
45.01667	0.2885456
45.03333	0.2771198
45.05	0.260323
45.06667	0.2482136
45.08333	0.2446003
45.1	0.2399128
45.11667	0.2259479
45.13333	0.2055378
45.15	0.1925495
45.16667	0.1931355
45.18333	0.1976276
45.2	0.1935261
45.21667	0.1811237
45.23333	0.169698
45.25	0.1611042
45.26667	0.1514362
45.28333	0.1371784
45.3	0.1273151
45.31667	0.1282917
45.33333	0.1383503
45.35	0.1454792
45.36667	0.1436237
45.38333	0.1362019
45.4	0.1258503
45.41667	0.112862
45.43333	0.1028034
45.45	0.1013386
45.46667	0.1050495
45.48333	0.1048542
45.5	0.09684639
45.51667	0.08688545
45.53333	0.07946358
45.55	0.07311592
45.56667	0.06559639
45.58333	0.05856514
45.6	0.0564167
45.61667	0.06071358
45.63333	0.0711628
45.65	0.08229561
45.66667	0.08444405
45.68333	0.07379951
45.7	0.05758858
45.71667	0.04108467
45.73333	0.02819405
45.75	0.0220417
45.76667	0.02321358
45.78333	0.02819405
45.8	0.03639717
45.81667	0.04713936
45.83333	0.05114327
45.85	0.04381905
45.86667	0.03434639
45.88333	0.03571358
45.9	0.04342842
45.91667	0.0423542
45.93333	0.03200264
45.95	0.02331123
45.96667	0.02213936
45.98333	0.02506905
46	0.02555733
46.01667	0.0236042
46.03333	0.02252998
46.05	0.0236042
46.06667	0.0236042
46.08333	0.0211628
46.1	0.01794014
46.11667	0.01481514
46.13333	0.01295967
46.15	0.0149128
46.16667	0.02194405
46.18333	0.0258503
46.2	0.01745186
46.21667	0.001436234
46.23333	-0.008915329
46.25	-0.0107708
46.26667	-0.01096611
46.28333	-0.01096611
46.3	-0.008427048
46.31667	-0.007157517
46.33333	-0.01028252
46.35	-0.01067314
46.36667	-0.00549736
46.38333	0.0003620148
46.4	0.001240921
46.41667	-0.003837204
46.43333	-0.01047783
46.45	-0.01516533
46.46667	-0.01428642
46.48333	-0.006571579
46.5	0.002998733
46.51667	0.009248734
46.53333	0.00778389
46.55	-0.002958298
46.56667	-0.0147747
46.58333	-0.01643486
46.6	-0.005692673
46.61667	0.006807327
46.63333	0.008076859
46.65	-0.0006145478
46.66667	-0.005009079
46.68333	0.002998733
46.7	0.01403389
46.71667	0.01940498
46.73333	0.02135811
46.75	0.02321358
46.76667	0.02028389
46.78333	0.007295609
46.8	-0.006083298
46.81667	-0.00705986
46.83333	0.001436234
46.85	0.008174514
46.86667	0.006514358
46.88333	-0.003544235
46.9	-0.01457939
46.91667	-0.01614189
46.93333	-0.008817673
46.95	-0.005204392
46.96667	-0.008817673
46.98333	-0.01282158
47	-0.0163372
47.01667	-0.02532158
47.03333	-0.03498955
47.05	-0.03303642
47.06667	-0.02024345
47.08333	-0.01047783
47.1	-0.0107708
47.11667	-0.01907158
47.13333	-0.02698174
47.15	-0.02932549
47.16667	-0.02463799
47.18333	-0.01682549
47.2	-0.009208297
47.21667	-0.005595016
47.23333	-0.008817673
47.25	-0.01643486
47.26667	-0.0194622
47.28333	-0.01340752
47.3	-0.001005173
47.31667	0.006416702
47.33333	0.003194046
47.35	-0.008329391
47.36667	-0.01916924
47.38333	-0.02580986
47.4	-0.02551689
47.41667	-0.01985283
47.43333	-0.01838798
47.45	-0.02493095
47.46667	-0.03186455
47.48333	-0.0303997
47.5	-0.02522392
47.51667	-0.02502861
47.53333	-0.0279583
47.55	-0.02688408
47.56667	-0.01897392
47.58333	-0.008427048
47.6	-0.001688767
47.61667	-0.006669235
47.63333	-0.02043877
47.65	-0.03479423
47.66667	-0.0420208
47.68333	-0.0420208
47.7	-0.04231377
47.71667	-0.0451458
47.73333	-0.04534111
47.75	-0.04006767
47.76667	-0.03538017
47.78333	-0.03254814
47.8	-0.02551689
47.81667	-0.01086845
47.83333	0.002608109
47.85	0.003389359
47.86667	-0.004130173
47.88333	-0.008329391
47.9	-0.0107708
47.91667	-0.01575127
47.93333	-0.01955986
47.95	-0.02053642
47.96667	-0.02053642
47.98333	-0.0194622
48	-0.01399345
48.01667	-0.007548141
48.03333	-0.008134079
48.05	-0.01614189
48.06667	-0.02366142
48.08333	-0.02590752
48.1	-0.02678642
48.11667	-0.0288372
48.13333	-0.02893486
48.15	-0.02561455
48.16667	-0.02024345
48.18333	-0.01038017
48.2	0.004854202
48.21667	0.01481514
48.23333	0.01129952
48.25	-0.006083298
48.26667	-0.02405205
48.28333	-0.02756767
48.3	-0.01370049
48.31667	0.007197952
48.33333	0.02301827
48.35	0.02995186
48.36667	0.02790108
48.38333	0.02028389
48.4	0.01188545
48.41667	0.003291702
48.43333	-0.006571579
48.45	-0.0107708
48.46667	-0.005692673
48.48333	0.002412796
48.5	0.002217483
48.51667	-0.004618454
48.53333	-0.007450485
48.55	-0.002567673
48.56667	0.007100296
48.58333	0.01481514
48.6	0.01432686
48.61667	0.0001667023
48.63333	-0.0232708
48.65	-0.04016533
48.66667	-0.03879814
48.68333	-0.0257122
48.7	-0.01379814
48.71667	-0.007255173
48.73333	-0.001884079
48.75	0.003584671
48.76667	0.005147171
48.78333	0.0002643585
48.8	-0.008231735
48.81667	-0.01311455
48.83333	-0.009989548
48.85	-0.001981735
48.86667	0.005928421
48.88333	0.01051826
48.9	0.01071358
48.91667	0.008272171
48.93333	0.002217483
48.95	-0.005595016
48.96667	-0.009989548
48.98333	-0.01028252
49	-0.01086845
49.01667	-0.01672783
49.03333	-0.02346611
49.05	-0.02502861
49.06667	-0.02180595
49.08333	-0.01848564
49.1	-0.01731377
49.11667	-0.01330986
49.13333	-0.000712204
49.15	0.01715889
49.16667	0.02653389
49.18333	0.01940498
49.2	-0.001005173
49.21667	-0.02405205
49.23333	-0.03830986
49.25	-0.03830986
49.26667	-0.02610283
49.28333	-0.01096611
49.3	0.0006549835
49.31667	0.005342484
49.33333	0.001924515
49.35	-0.002567673
49.36667	0.002705765
49.38333	0.01256905
49.4	0.0164753
49.41667	0.01071358
49.43333	0.002412796
49.45	-0.00471611
49.46667	-0.009110642
49.48333	-0.01204033
49.5	-0.0100872
49.51667	-0.004520798
49.53333	-0.002860642
49.55	-0.006473923
49.56667	-0.009696579
49.58333	-0.006180954
49.6	0.002901077
49.61667	0.01051826
49.63333	0.01598701
49.65	0.01569405
49.66667	0.007295609
49.68333	-0.004618454
49.7	-0.005399704
49.71667	0.00778389
49.73333	0.02038155
49.75	0.02165108
49.76667	0.01676827
49.78333	0.01383858
49.8	0.01139717
49.81667	0.005733109
49.83333	0.0003620148
49.85	0.002510452
49.86667	0.01032295
49.88333	0.01774483
49.9	0.01813545
49.91667	0.01120186
49.93333	0.001338577
49.95	-0.006669235
49.96667	-0.0107708
49.98333	-0.009208297
50	0.0003620148
50.01667	0.01286201
50.03333	0.01833076
50.05	0.01530342
50.06667	0.01120186
50.08333	0.01051826
50.1	0.01286201
50.11667	0.01452217
50.13333	0.009444046
50.15	-0.005204392
50.16667	-0.01995048
50.18333	-0.02219658
50.2	-0.01204033
50.21667	-0.0004192352
50.23333	0.005830765
50.25	0.009248734
50.26667	0.009834671
50.28333	0.004072952
50.3	-0.005399704
50.31667	-0.01018486
50.33333	-0.0147747
50.35	-0.02229423
50.36667	-0.02317314
50.38333	-0.01038017
50.4	0.006514358
50.41667	0.01159248
50.43333	0.00622139
50.45	-0.002177048
50.46667	-0.009012985
50.48333	-0.01340752
50.5	-0.01252861
50.51667	-0.009012985
50.53333	-0.01116142
50.55	-0.01887627
50.56667	-0.02356377
50.58333	-0.02278252
50.6	-0.0225872
50.61667	-0.02756767
50.63333	-0.02805595
50.65	-0.01838798
50.66667	-0.008036423
50.68333	-0.005692673
50.7	-0.004813767
50.71667	0.004756546
50.73333	0.01452217
50.75	0.01374092
50.76667	0.004463577
50.78333	-0.007157517
50.8	-0.01594658
50.81667	-0.02190361
50.83333	-0.02297783
50.85	-0.0194622
50.86667	-0.0163372
50.88333	-0.01575127
50.9	-0.01516533
50.91667	-0.0132122
50.93333	-0.009891892
50.95	-0.001102829
50.96667	0.01315498
50.98333	0.02379951
51	0.02311592
51.01667	0.01169014
51.03333	-0.004325485
51.05	-0.01536064
51.06667	-0.01809502
51.08333	-0.01692314
51.1	-0.01584892
51.11667	-0.01018486
51.13333	0.00231514
51.15	0.01129952
51.16667	0.01002998
51.18333	0.003975296
51.2	0.001436234
51.21667	0.004854202
51.23333	0.01061592
51.25	0.01227608
51.26667	0.004463577
51.28333	-0.006083298
51.3	-0.009305954
51.31667	-0.005399704
51.33333	-0.002177048
51.35	-0.004423141
51.36667	-0.008231735
51.38333	-0.01125908
51.4	-0.01409111
51.41667	-0.01623955
51.43333	-0.01370049
51.45	-0.006766892
51.46667	-0.0008098602
51.48333	-0.0005168915
51.5	-0.00705986
51.51667	-0.0138958
51.53333	-0.01555595
51.55	-0.007938767
51.56667	0.005049515
51.58333	0.01139717
51.6	0.005537796
51.61667	-0.008036423
51.63333	-0.01438408
51.65	-0.008915329
51.66667	0.002901077
51.68333	0.006904983
51.7	0.001729202
51.71667	-0.007157517
51.73333	-0.01291924
51.75	-0.01682549
51.76667	-0.01897392
51.78333	-0.0178997
51.8	-0.01301689
51.81667	-0.007157517
51.83333	-0.001981735
51.85	0.003682327
51.86667	0.008467483
51.88333	0.01081123
51.9	0.01061592
51.91667	0.008369828
51.93333	0.003682327
51.95	-0.004130173
51.96667	-0.01116142
51.98333	-0.01213798
52	-0.008427048
52.01667	-0.006669235
52.03333	-0.007352829
52.05	-0.001200485
52.06667	0.01002998
52.08333	0.01217842
52.1	0.001729202
52.11667	-0.0100872
52.13333	-0.01272392
52.15	-0.01145439
52.16667	-0.01194267
52.18333	-0.01418877
52.2	-0.01682549
52.21667	-0.01936455
52.23333	-0.02122002
52.25	-0.02180595
52.26667	-0.02034111
52.28333	-0.01868095
52.3	-0.01770439
52.31667	-0.01272392
52.33333	-0.001395798
52.35	0.01413155
52.36667	0.02780342
52.38333	0.03288155
52.4	0.02448311
52.41667	0.007979202
52.43333	-0.005790329
52.45	-0.00862236
52.46667	-0.005204392
52.48333	-0.002860642
52.5	-0.003739548
52.51667	-0.004423141
52.53333	0.0005573273
52.55	0.006123734
52.56667	0.006807327
52.58333	0.005147171
52.6	0.004561233
52.61667	0.004561233
52.63333	0.001045609
52.65	-0.004618454
52.66667	-0.00627861
52.68333	-0.00393486
52.7	-0.002958298
52.71667	-0.005692673
52.73333	-0.008427048
52.75	-0.008329391
52.76667	-0.009110642
52.78333	-0.01057549
52.8	-0.00705986
52.81667	0.003975296
52.83333	0.0126667
52.85	0.01471748
52.86667	0.01588936
52.88333	0.01549873
52.9	0.006612015
52.91667	-0.007450485
52.93333	-0.01252861
52.95	-0.009403611
52.96667	-0.009891892
52.98333	-0.01809502
53	-0.02434502
53.01667	-0.02463799
53.03333	-0.02161064
53.05	-0.01819267
53.06667	-0.01448174
53.08333	-0.01106377
53.1	-0.009794235
53.11667	-0.007938767
53.13333	-0.003544235
53.15	0.001826858
53.16667	0.003194046
53.18333	0.002217483
53.2	-0.000712204
53.21667	-0.002860642
53.23333	-0.001688767
53.25	0.001240921
53.26667	0.002803421
53.28333	0.002803421
53.3	-0.003251266
53.31667	-0.01682549
53.33333	-0.03118095
53.35	-0.03303642
53.36667	-0.02288017
53.38333	-0.01370049
53.4	-0.01487236
53.41667	-0.02043877
53.43333	-0.01995048
53.45	-0.01623955
53.46667	-0.01741142
53.48333	-0.0232708
53.5	-0.02649345
53.51667	-0.02395439
53.53333	-0.01897392
53.55	-0.01497002
53.56667	-0.0138958
53.58333	-0.01487236
53.6	-0.01565361
53.61667	-0.01623955
53.63333	-0.01623955
53.65	-0.01370049
53.66667	-0.009696579
53.68333	-0.007157517
53.7	-0.006864548
53.71667	-0.005106735
53.73333	-0.001688767
53.75	-0.0009075165
53.76667	-0.00549736
53.78333	-0.009208297
53.8	-0.009403611
53.81667	-0.00627861
53.83333	-0.004227829
53.85	-0.007255173
53.86667	-0.01223564
53.88333	-0.01584892
53.9	-0.01614189
53.91667	-0.01340752
53.93333	-0.009305954
53.95	-0.008231735
53.96667	-0.01067314
53.98333	-0.007352829
54	0.009737015
54.01667	0.02907295
54.03333	0.03805733
54.05	0.03219795
54.06667	0.01754951
54.08333	0.004463577
54.1	-0.003055954
54.11667	-0.002958298
54.13333	0.002705765
54.15	0.008076859
54.16667	0.007100296
54.18333	0.001826858
54.2	0.0005573273
54.21667	0.004951858
54.23333	0.00700264
54.25	0.005244827
54.26667	0.006612015
54.28333	0.0142292
54.3	0.02350655
54.31667	0.02682686
54.33333	0.02165108
54.35	0.01354561
54.36667	0.005928421
54.38333	-0.001298141
54.4	-0.006962204
54.41667	-0.005399704
54.43333	0.004854202
54.45	0.01413155
54.46667	0.01657295
54.48333	0.01325264
54.5	0.008955765
54.51667	0.007979202
54.53333	0.00700264
54.55	0.0003620148
54.56667	-0.009208297
54.58333	-0.01379814
54.6	-0.01291924
54.61667	-0.01448174
54.63333	-0.01897392
54.65	-0.02209892
54.66667	-0.0194622
54.68333	-0.0132122
54.7	-0.009012985
54.71667	-0.01125908
54.73333	-0.0210247
54.75	-0.03059502
54.76667	-0.03547783
54.78333	-0.0366497
54.8	-0.03528251
54.81667	-0.02981377
54.83333	-0.02180595
54.85	-0.01955986
54.86667	-0.02444267
54.88333	-0.02747002
54.9	-0.01868095
54.91667	0.0009479523
54.93333	0.02086983
54.95	0.03131904
54.96667	0.02975655
54.98333	0.0204792
55	0.00934639
