"SampleName"	"5. PC-12 wt"
"System Name"	"Alliance 2"
"Sample Set Name"	"DTtV_15052025 GSL new HPLC"
"Date Acquired"	"5/15/2025 6:30:25 PM BST"
"Sample Set Start Date"	"5/15/2025 2:04:31 PM BST"
0	0.0005630493
0.01666667	0.0007034302
0.03333333	0.0007423401
0.05	0.005722809
0.06666667	0.01558609
0.08333333	0.02710953
0.1	0.03902359
0.1166667	0.05132828
0.1333333	0.0610939
0.15	0.06402359
0.1666667	0.06333999
0.1833333	0.06431656
0.2	0.0649025
0.2166667	0.06187515
0.2333333	0.05914078
0.25	0.06187515
0.2666667	0.07115249
0.2833333	0.08042984
0.3	0.08443375
0.3166667	0.08375015
0.3333333	0.08169937
0.35	0.08316422
0.3666667	0.08775406
0.3833333	0.09068374
0.4	0.08775406
0.4166667	0.0798439
0.4333333	0.07085953
0.45	0.06050796
0.4666667	0.05044937
0.4833333	0.04478531
0.5	0.04205094
0.5166667	0.04097671
0.5333333	0.04449234
0.55	0.05230484
0.5666667	0.0610939
0.5833333	0.0649025
0.6	0.06353531
0.6166667	0.0564064
0.6333333	0.05132828
0.65	0.05699234
0.6666667	0.06705093
0.6833333	0.06880875
0.7	0.06324234
0.7166667	0.05884781
0.7333333	0.06089859
0.75	0.06294937
0.7666667	0.05894547
0.7833333	0.04937515
0.8	0.04195328
0.8166667	0.04087906
0.8333333	0.04253922
0.85	0.03873062
0.8666667	0.02974625
0.8833333	0.02232437
0.9	0.02447281
0.9166667	0.03687515
0.9333333	0.05132828
0.95	0.05816422
0.9666667	0.05386734
0.9833333	0.04712906
1	0.04312515
1.016667	0.04175796
1.033333	0.04205094
1.05	0.04087906
1.066667	0.03404312
1.083333	0.0211525
1.1	0.007480621
1.116667	-3.890991e-05
1.133333	0.002597809
1.15	0.01714859
1.166667	0.03726578
1.183333	0.05445328
1.2	0.06255875
1.216667	0.05904312
1.233333	0.04634781
1.25	0.03287125
1.266667	0.02437515
1.283333	0.01959
1.3	0.01675797
1.316667	0.01675797
1.333333	0.02105484
1.35	0.02457047
1.366667	0.0242775
1.383333	0.02662125
1.4	0.03580093
1.416667	0.04488296
1.433333	0.04556656
1.45	0.03443374
1.466667	0.01460953
1.483333	-0.008046722
1.5	-0.02621078
1.516667	-0.03490219
1.533333	-0.03167953
1.55	-0.01888657
1.566667	-0.007558441
1.583333	-0.005117035
1.6	-0.009609222
1.616667	-0.01205063
1.633333	-0.009316253
1.65	-0.004433441
1.666667	-0.0002342224
1.683333	0.002988434
1.7	0.005332184
1.716667	0.008945465
1.733333	0.02544937
1.75	0.06294937
1.766667	0.1191017
1.783333	0.17584
1.8	0.2201759
1.816667	0.2507423
1.833333	0.2708595
1.85	0.2768165
1.866667	0.2642189
1.883333	0.2400002
1.9	0.2189064
1.916667	0.2061134
1.933333	0.191758
1.95	0.1655861
1.966667	0.1330666
1.983333	0.1076759
2	0.09468766
2.016667	0.09019546
2.033333	0.08472671
2.05	0.072715
2.066667	0.05337906
2.083333	0.035215
2.1	0.02974625
2.116667	0.03707046
2.133333	0.04048843
2.15	0.02593765
2.166667	0.001914215
2.183333	-0.01068344
2.2	-0.007949066
2.216667	-0.003554535
2.233333	-0.009902191
2.25	-0.02474594
2.266667	-0.03617172
2.283333	-0.03412094
2.3	-0.02074203
2.316667	-0.009804535
2.333333	-0.009120941
2.35	-0.01624985
2.366667	-0.0257225
2.383333	-0.03255844
2.4	-0.03646469
2.416667	-0.03978501
2.433333	-0.04896469
2.45	-0.06839828
2.466667	-0.09388657
2.483333	-0.1177147
2.5	-0.1348045
2.516667	-0.1466209
2.533333	-0.1537499
2.55	-0.1524803
2.566667	-0.148867
2.583333	-0.1475975
2.6	-0.1418358
2.616667	-0.1235741
2.633333	-0.09349594
2.65	-0.06097641
2.666667	-0.02240219
2.683333	0.03335953
2.7	0.107383
2.716667	0.1956642
2.733333	0.2971291
2.75	0.4189064
2.766667	0.5634376
2.783333	0.7290627
2.8	0.9167579
2.816667	1.132578
2.833333	1.381504
2.85	1.66832
2.866667	1.991856
2.883333	2.338242
2.9	2.684043
2.916667	3.006406
2.933333	3.296934
2.95	3.561875
2.966667	3.812559
2.983333	4.051914
3	4.280528
3.016667	4.504941
3.033333	4.734043
3.05	4.976035
3.066667	5.235898
3.083333	5.512559
3.1	5.795762
3.116667	6.067246
3.133333	6.311778
3.15	6.522227
3.166667	6.697227
3.183333	6.834629
3.2	6.934434
3.216667	7.017344
3.233333	7.124376
3.25	7.302501
3.266667	7.599376
3.283333	8.102794
3.3	8.975255
3.316667	10.39215
3.333333	12.3901
3.35	14.76734
3.366667	17.15768
3.383333	19.21656
3.4	20.75943
3.416667	21.78746
3.433333	22.54078
3.45	23.89547
3.466667	28.41139
3.483333	41.35983
3.5	69.59938
3.516667	117.2688
3.533333	181.6452
3.55	253.9543
3.566667	324.5508
3.583333	386.7154
3.6	436.0363
3.616667	468.3156
3.633333	479.7691
3.65	469.3949
3.666667	440.6059
3.683333	400.3633
3.7	356.5692
3.716667	315.7147
3.733333	281.9218
3.75	257.1787
3.766667	242.121
3.783333	236.6996
3.8	240.3389
3.816667	251.6666
3.833333	268.1312
3.85	285.7181
3.866667	299.08
3.883333	302.9546
3.9	294.7001
3.916667	274.999
3.933333	245.4016
3.95	207.049
3.966667	163.2704
3.983333	120.9888
4	86.90974
4.016667	63.14948
4.033333	47.73072
4.05	37.79459
4.066667	31.25611
4.083333	26.76158
4.1	23.42721
4.116667	20.73775
4.133333	18.48678
4.15	16.64342
4.166667	15.20475
4.183333	14.13365
4.2	13.36051
4.216667	12.81237
4.233333	12.42145
4.25	12.13111
4.266667	11.8986
4.283333	11.70299
4.3	11.53951
4.316667	11.42252
4.333333	11.39186
4.35	11.49762
4.366667	11.76315
4.383333	12.16988
4.4	12.67623
4.416667	13.22487
4.433333	13.72721
4.45	14.06744
4.466667	14.15192
4.483333	13.95231
4.5	13.49772
4.516667	12.8485
4.533333	12.07945
4.55	11.26324
4.566667	10.44762
4.583333	9.655236
4.6	8.906505
4.616667	8.230822
4.633333	7.650743
4.65	7.183946
4.666667	6.867539
4.683333	6.744297
4.7	6.823594
4.716667	7.054844
4.733333	7.337852
4.75	7.566173
4.766667	7.669591
4.783333	7.636583
4.8	7.504454
4.816667	7.332677
4.833333	7.16715
4.85	7.018418
4.866667	6.877696
4.883333	6.74127
4.9	6.62125
4.916667	6.542539
4.933333	6.535313
4.95	6.610508
4.966667	6.74332
4.983333	6.888144
5	7.001719
5.016667	7.04918
5.033333	7.013438
5.05	6.908946
5.066667	6.780918
5.083333	6.675157
5.1	6.610215
5.116667	6.577598
5.133333	6.560215
5.15	6.53834
5.166667	6.489902
5.183333	6.392246
5.2	6.234629
5.216667	6.023398
5.233333	5.779844
5.25	5.529746
5.266667	5.291856
5.283333	5.074766
5.3	4.879941
5.316667	4.701524
5.333333	4.526719
5.35	4.352891
5.366667	4.190098
5.383333	4.054942
5.4	3.963145
5.416667	3.923301
5.433333	3.937949
5.45	3.994688
5.466667	4.070176
5.483333	4.134531
5.5	4.165
5.516667	4.159043
5.533333	4.133359
5.55	4.123594
5.566667	4.184043
5.583333	4.369883
5.6	4.704356
5.616667	5.148496
5.633333	5.608457
5.65	5.978379
5.666667	6.17916
5.683333	6.187266
5.7	6.033067
5.716667	5.78209
5.733333	5.506211
5.75	5.259238
5.766667	5.066172
5.783333	4.933066
5.8	4.854063
5.816667	4.824277
5.833333	4.835996
5.85	4.876328
5.866667	4.925449
5.883333	4.968223
5.9	4.996934
5.916667	5.004746
5.933333	4.981113
5.95	4.914317
5.966667	4.798301
5.983333	4.63834
6	4.449082
6.016667	4.243028
6.033333	4.029453
6.05	3.816856
6.066667	3.616563
6.083333	3.436778
6.1	3.282188
6.116667	3.1525
6.133333	3.048692
6.15	2.973496
6.166667	2.924863
6.183333	2.892442
6.2	2.859824
6.216667	2.81627
6.233333	2.761192
6.25	2.69957
6.266667	2.639121
6.283333	2.581309
6.3	2.524082
6.316667	2.468028
6.333333	2.416465
6.35	2.370469
6.366667	2.324863
6.383333	2.27457
6.4	2.223496
6.416667	2.180137
6.433333	2.148008
6.45	2.123203
6.466667	2.109336
6.483333	2.112754
6.5	2.134043
6.516667	2.162949
6.533333	2.188438
6.55	2.207871
6.566667	2.22125
6.583333	2.228184
6.6	2.231113
6.616667	2.234238
6.633333	2.232676
6.65	2.214414
6.666667	2.175156
6.683333	2.119297
6.7	2.055234
6.716667	1.990098
6.733333	1.928086
6.75	1.870567
6.766667	1.81627
6.783333	1.764317
6.8	1.717442
6.816667	1.681309
6.833333	1.660996
6.85	1.659629
6.866667	1.68082
6.883333	1.724863
6.9	1.790195
6.916667	1.873008
6.933333	1.968223
6.95	2.063242
6.966667	2.143516
6.983333	2.198692
7	2.221934
7.016667	2.211289
7.033333	2.176914
7.05	2.132871
7.066667	2.087363
7.083333	2.04
7.1	1.989805
7.116667	1.942442
7.133333	1.902793
7.15	1.871543
7.166667	1.846543
7.183333	1.822324
7.2	1.797324
7.216667	1.771348
7.233333	1.745078
7.25	1.720957
7.266667	1.702988
7.283333	1.692149
7.3	1.685801
7.316667	1.690488
7.333333	1.719199
7.35	1.781406
7.366667	1.882578
7.383333	2.031309
7.4	2.230527
7.416667	2.462852
7.433333	2.691465
7.45	2.873399
7.466667	2.982481
7.483333	3.012363
7.5	2.966758
7.516667	2.854942
7.533333	2.697617
7.55	2.520176
7.566667	2.34127
7.583333	2.17418
7.6	2.025254
7.616667	1.890879
7.633333	1.769297
7.65	1.664024
7.666667	1.580332
7.683333	1.519102
7.7	1.478086
7.716667	1.449863
7.733333	1.428184
7.75	1.412168
7.766667	1.402207
7.783333	1.397715
7.8	1.400449
7.816667	1.409336
7.833333	1.417442
7.85	1.42291
7.866667	1.426914
7.883333	1.430723
7.9	1.435313
7.916667	1.440684
7.933333	1.444395
7.95	1.443711
7.966667	1.443906
7.983333	1.450352
8	1.458067
8.016667	1.461875
8.033333	1.46627
8.05	1.474668
8.066667	1.484141
8.083333	1.49586
8.1	1.517149
8.116667	1.54791
8.133333	1.581016
8.15	1.620664
8.166667	1.677598
8.183333	1.756211
8.2	1.854649
8.216667	1.974863
8.233333	2.126719
8.25	2.312949
8.266667	2.525938
8.283333	2.74293
8.3	2.935508
8.316667	3.082383
8.333333	3.17125
8.35	3.199375
8.366667	3.172324
8.383333	3.096446
8.4	2.976817
8.416667	2.819395
8.433333	2.637949
8.45	2.451719
8.466667	2.270957
8.483333	2.099668
8.5	1.943321
8.516667	1.809727
8.533333	1.701035
8.55	1.610117
8.566667	1.529844
8.583333	1.456406
8.6	1.389024
8.616667	1.329844
8.633333	1.278477
8.65	1.233652
8.666667	1.194883
8.683333	1.164707
8.7	1.147813
8.716667	1.144297
8.733333	1.147617
8.75	1.147031
8.766667	1.134043
8.783333	1.11627
8.8	1.106797
8.816667	1.108067
8.833333	1.11002
8.85	1.108848
8.866667	1.113828
8.883333	1.131797
8.9	1.156992
8.916667	1.179942
8.933333	1.202207
8.95	1.231797
8.966667	1.274473
8.983333	1.332285
9	1.403477
9.016667	1.488731
9.033333	1.594395
9.05	1.726817
9.066667	1.886973
9.083333	2.070274
9.1	2.278281
9.116667	2.515391
9.133333	2.775645
9.15	3.034141
9.166667	3.263047
9.183333	3.440781
9.2	3.554063
9.216667	3.592539
9.233333	3.559141
9.25	3.468516
9.266667	3.334727
9.283333	3.162071
9.3	2.955918
9.316667	2.73336
9.333333	2.51666
9.35	2.321445
9.366667	2.149473
9.383333	1.992735
9.4	1.843027
9.416667	1.697031
9.433333	1.555723
9.45	1.423301
9.466667	1.307285
9.483333	1.211485
9.5	1.133848
9.516667	1.069004
9.533333	1.014512
9.55	0.969004
9.566667	0.9297463
9.583333	0.8934181
9.6	0.8591408
9.616667	0.8288673
9.633333	0.8071877
9.65	0.7981056
9.666667	0.8089455
9.683333	0.8332618
9.7	0.8556252
9.716667	0.8654884
9.733333	0.8726174
9.75	0.8900002
9.766667	0.9187111
9.783333	0.953965
9.8	0.9964455
9.816667	1.045762
9.833333	1.09918
9.85	1.157774
9.866667	1.216953
9.883333	1.263242
9.9	1.285508
9.916667	1.28961
9.933333	1.293516
9.95	1.301621
9.966667	1.298106
9.983333	1.266953
10	1.207871
10.01667	1.131895
10.03333	1.050156
10.05	0.9711525
10.06667	0.8982033
10.08333	0.8290626
10.1	0.7614845
10.11667	0.7004493
10.13333	0.6548439
10.15	0.6222267
10.16667	0.5933205
10.18333	0.5628517
10.2	0.5324806
10.21667	0.5049416
10.23333	0.4847267
10.25	0.4749611
10.26667	0.4696876
10.28333	0.4649025
10.3	0.4589455
10.31667	0.4537697
10.33333	0.4486915
10.35	0.4435158
10.36667	0.438633
10.38333	0.4296486
10.4	0.4169533
10.41667	0.4069923
10.43333	0.4020119
10.45	0.3983986
10.46667	0.394297
10.48333	0.394297
10.5	0.4007424
10.51667	0.4081642
10.53333	0.4118752
10.55	0.4125587
10.56667	0.4148048
10.58333	0.4193947
10.6	0.4220314
10.61667	0.4169533
10.63333	0.4054298
10.65	0.3950783
10.66667	0.3892189
10.68333	0.3882423
10.7	0.3887306
10.71667	0.3912697
10.73333	0.397422
10.75	0.4060158
10.76667	0.4089455
10.78333	0.4028908
10.8	0.3943947
10.81667	0.3910744
10.83333	0.3885353
10.85	0.3821877
10.86667	0.376133
10.88333	0.3736916
10.9	0.3721291
10.91667	0.3685158
10.93333	0.3643166
10.95	0.3590431
10.96667	0.3518166
10.98333	0.3488869
11	0.3550392
11.01667	0.3619728
11.03333	0.3617775
11.05	0.3600197
11.06667	0.3634377
11.08333	0.3691994
11.1	0.3709572
11.11667	0.3683205
11.13333	0.3639259
11.15	0.3600197
11.16667	0.3600197
11.18333	0.366465
11.2	0.378965
11.21667	0.3921486
11.23333	0.3987892
11.25	0.3968361
11.26667	0.3877541
11.28333	0.3790627
11.3	0.3769142
11.31667	0.3791603
11.33333	0.3777931
11.35	0.3733009
11.36667	0.3723244
11.38333	0.3774025
11.4	0.3857033
11.41667	0.3959572
11.43333	0.4038673
11.45	0.4048439
11.46667	0.3999611
11.48333	0.3951759
11.5	0.3922462
11.51667	0.3913673
11.53333	0.3952736
11.55	0.4080666
11.56667	0.4267189
11.58333	0.4438087
11.6	0.4533791
11.61667	0.4590431
11.63333	0.4693947
11.65	0.4851173
11.66667	0.498008
11.68333	0.5066994
11.7	0.5154884
11.71667	0.5241798
11.73333	0.5377541
11.75	0.5687111
11.76667	0.6148049
11.78333	0.6546486
11.8	0.6749611
11.81667	0.6871681
11.83333	0.7021095
11.85	0.7260353
11.86667	0.7612892
11.88333	0.8045509
11.9	0.8459572
11.91667	0.8776954
11.93333	0.9032814
11.95	0.9264259
11.96667	0.9456642
11.98333	0.9558204
12	0.9563087
12.01667	0.9501564
12.03333	0.9407814
12.05	0.9298439
12.06667	0.9200783
12.08333	0.9092385
12.1	0.8881447
12.11667	0.8554298
12.13333	0.8213478
12.15	0.7933205
12.16667	0.7720314
12.18333	0.7532814
12.2	0.7392189
12.21667	0.7276955
12.23333	0.7157814
12.25	0.7076759
12.26667	0.704258
12.28333	0.7010353
12.3	0.691758
12.31667	0.6777931
12.33333	0.6687111
12.35	0.6704689
12.36667	0.6779884
12.38333	0.6802346
12.4	0.6726173
12.41667	0.6653908
12.43333	0.6668556
12.45	0.6765236
12.46667	0.6878517
12.48333	0.6940041
12.5	0.694297
12.51667	0.6943947
12.53333	0.6969337
12.55	0.6947853
12.56667	0.6853126
12.58333	0.6757423
12.6	0.6754494
12.61667	0.6832619
12.63333	0.69459
12.65	0.7059181
12.66667	0.7094337
12.68333	0.7032814
12.7	0.6956642
12.71667	0.6926368
12.73333	0.6899025
12.75	0.6830665
12.76667	0.6746681
12.78333	0.6642189
12.8	0.6513283
12.81667	0.6443947
12.83333	0.6488869
12.85	0.6577736
12.86667	0.6615822
12.88333	0.6608986
12.9	0.6578712
12.91667	0.6543556
12.93333	0.6525002
12.95	0.6558205
12.96667	0.6632423
12.98333	0.669883
13	0.6699806
13.01667	0.6635353
13.03333	0.6610939
13.05	0.6655861
13.06667	0.6689064
13.08333	0.6651955
13.1	0.666172
13.11667	0.6859962
13.13333	0.7207619
13.15	0.7556251
13.16667	0.7856056
13.18333	0.8178322
13.2	0.85709
13.21667	0.8996681
13.23333	0.9392189
13.25	0.9815041
13.26667	1.033653
13.28333	1.092539
13.3	1.150645
13.31667	1.204746
13.33333	1.255039
13.35	1.302402
13.36667	1.343711
13.38333	1.371934
13.4	1.380625
13.41667	1.374473
13.43333	1.360703
13.45	1.341856
13.46667	1.318321
13.48333	1.28834
13.5	1.255918
13.51667	1.222031
13.53333	1.190098
13.55	1.16334
13.56667	1.143711
13.58333	1.128965
13.6	1.116856
13.61667	1.104746
13.63333	1.090781
13.65	1.079551
13.66667	1.07252
13.68333	1.06793
13.7	1.059727
13.71667	1.043809
13.73333	1.028965
13.75	1.023789
13.76667	1.028184
13.78333	1.030527
13.8	1.025059
13.81667	1.014121
13.83333	1.0025
13.85	0.9919533
13.86667	0.981797
13.88333	0.9707619
13.9	0.9566994
13.91667	0.9406837
13.93333	0.9307228
13.95	0.9331642
13.96667	0.9463478
13.98333	0.9692971
14	1.012852
14.01667	1.088535
14.03333	1.199668
14.05	1.34127
14.06667	1.515977
14.08333	1.735703
14.1	2.01041
14.11667	2.344981
14.13333	2.740196
14.15	3.190098
14.16667	3.68375
14.18333	4.213535
14.2	4.773008
14.21667	5.347715
14.23333	5.91793
14.25	6.463047
14.26667	6.960801
14.28333	7.390391
14.3	7.73463
14.31667	7.983849
14.33333	8.133654
14.35	8.184239
14.36667	8.138341
14.38333	8.000547
14.4	7.778966
14.41667	7.488145
14.43333	7.147227
14.45	6.774278
14.46667	6.378282
14.48333	5.961582
14.5	5.535996
14.51667	5.120274
14.53333	4.724375
14.55	4.352793
14.56667	4.008067
14.58333	3.691856
14.6	3.39957
14.61667	3.131504
14.63333	2.889805
14.65	2.671055
14.66667	2.47086
14.68333	2.288438
14.7	2.121934
14.71667	1.970371
14.73333	1.839024
14.75	1.732188
14.76667	1.645371
14.78333	1.565586
14.8	1.484141
14.81667	1.402891
14.83333	1.330528
14.85	1.270567
14.86667	1.219395
14.88333	1.17125
14.9	1.128379
14.91667	1.098496
14.93333	1.083555
14.95	1.077305
14.96667	1.066758
14.98333	1.04586
15	1.020859
15.01667	0.9982033
15.03333	0.9844338
15.05	0.9776955
15.06667	0.9715431
15.08333	0.9616798
15.1	0.9483986
15.11667	0.9365822
15.13333	0.9287697
15.15	0.9287697
15.16667	0.9345314
15.18333	0.9395119
15.2	0.9401954
15.21667	0.9370705
15.23333	0.9336525
15.25	0.9316994
15.26667	0.928672
15.28333	0.9240822
15.3	0.9222267
15.31667	0.9231056
15.33333	0.91959
15.35	0.9069923
15.36667	0.8938087
15.38333	0.8920509
15.4	0.9019142
15.41667	0.9095314
15.43333	0.9060158
15.45	0.8952736
15.46667	0.8871681
15.48333	0.8862892
15.5	0.8870705
15.51667	0.8900978
15.53333	0.8957618
15.55	0.9049416
15.56667	0.91334
15.58333	0.91959
15.6	0.926133
15.61667	0.9356056
15.63333	0.9438087
15.65	0.9494728
15.66667	0.9493752
15.68333	0.9413673
15.7	0.9296486
15.71667	0.9267189
15.73333	0.9331642
15.75	0.9397072
15.76667	0.9460548
15.78333	0.9603127
15.8	0.9810158
15.81667	0.9935158
15.83333	0.9904884
15.85	0.9762306
15.86667	0.9614846
15.88333	0.9547462
15.9	0.9569923
15.91667	0.9650002
15.93333	0.9725197
15.95	0.9733009
15.96667	0.969004
15.98333	0.9673439
16	0.972715
16.01667	0.9834572
16.03333	0.9941994
16.05	0.9996681
16.06667	1.002403
16.08333	1.015391
16.1	1.039805
16.11667	1.067637
16.13333	1.097324
16.15	1.141563
16.16667	1.211875
16.18333	1.307676
16.2	1.427696
16.21667	1.576914
16.23333	1.766074
16.25	2.005625
16.26667	2.301035
16.28333	2.653965
16.3	3.060606
16.31667	3.515098
16.33333	4.016465
16.35	4.560996
16.36667	5.131992
16.38333	5.703184
16.4	6.248496
16.41667	6.74957
16.43333	7.198985
16.45	7.588048
16.46667	7.90377
16.48333	8.13756
16.5	8.291954
16.51667	8.372228
16.53333	8.384142
16.55	8.346153
16.56667	8.273888
16.58333	8.183751
16.6	8.092931
16.61667	8.02213
16.63333	7.988145
16.65	7.99713
16.66667	8.050939
16.68333	8.144102
16.7	8.262754
16.71667	8.39088
16.73333	8.516661
16.75	8.629845
16.76667	8.71627
16.78333	8.758165
16.8	8.746348
16.81667	8.685704
16.83333	8.585314
16.85	8.441856
16.86667	8.256993
16.88333	8.048887
16.9	7.839122
16.91667	7.638634
16.93333	7.457286
16.95	7.30338
16.96667	7.16715
16.98333	7.037364
17	6.919492
17.01667	6.820176
17.03333	6.728281
17.05	6.620762
17.06667	6.484043
17.08333	6.316563
17.1	6.119981
17.11667	5.895078
17.13333	5.643027
17.15	5.369688
17.16667	5.081504
17.18333	4.784434
17.2	4.483359
17.21667	4.185215
17.23333	3.89625
17.25	3.623008
17.26667	3.369883
17.28333	3.139219
17.3	2.931797
17.31667	2.74459
17.33333	2.568809
17.35	2.401719
17.36667	2.251621
17.38333	2.122422
17.4	2.008555
17.41667	1.905137
17.43333	1.809727
17.45	1.721836
17.46667	1.647227
17.48333	1.592637
17.5	1.556699
17.51667	1.524863
17.53333	1.486485
17.55	1.445078
17.56667	1.409238
17.58333	1.380234
17.6	1.353574
17.61667	1.327988
17.63333	1.309434
17.65	1.296445
17.66667	1.284434
17.68333	1.273399
17.7	1.268613
17.71667	1.274375
17.73333	1.290098
17.75	1.313145
17.76667	1.341367
17.78333	1.373399
17.8	1.41002
17.81667	1.454649
17.83333	1.508945
17.85	1.573496
17.86667	1.648496
17.88333	1.736387
17.9	1.836582
17.91667	1.940293
17.93333	2.034922
17.95	2.118711
17.96667	2.198496
17.98333	2.274668
18	2.33209
18.01667	2.35709
18.03333	2.354942
18.05	2.342149
18.06667	2.324277
18.08333	2.290488
18.1	2.235996
18.11667	2.165
18.13333	2.082676
18.15	1.996153
18.16667	1.918223
18.18333	1.859629
18.2	1.816074
18.21667	1.775547
18.23333	1.730918
18.25	1.684238
18.26667	1.638633
18.28333	1.595957
18.3	1.559531
18.31667	1.534238
18.33333	1.516758
18.35	1.499277
18.36667	1.480137
18.38333	1.461192
18.4	1.448692
18.41667	1.446055
18.43333	1.451328
18.45	1.453086
18.46667	1.444492
18.48333	1.430235
18.5	1.41959
18.51667	1.417246
18.53333	1.424375
18.55	1.438242
18.56667	1.44752
18.58333	1.447813
18.6	1.444395
18.61667	1.447227
18.63333	1.459141
18.65	1.476524
18.66667	1.49
18.68333	1.494981
18.7	1.494297
18.71667	1.493809
18.73333	1.493809
18.75	1.491856
18.76667	1.487754
18.78333	1.484336
18.8	1.480332
18.81667	1.466953
18.83333	1.444297
18.85	1.423301
18.86667	1.416465
18.88333	1.416172
18.9	1.412461
18.91667	1.40709
18.93333	1.405918
18.95	1.405918
18.96667	1.404746
18.98333	1.401914
19	1.399277
19.01667	1.397324
19.03333	1.399863
19.05	1.408555
19.06667	1.418809
19.08333	1.425449
19.1	1.425254
19.11667	1.419297
19.13333	1.410899
19.15	1.405235
19.16667	1.400254
19.18333	1.394492
19.2	1.391367
19.21667	1.395469
19.23333	1.404063
19.25	1.408653
19.26667	1.404258
19.28333	1.394785
19.3	1.386192
19.31667	1.386192
19.33333	1.390977
19.35	1.390684
19.36667	1.381895
19.38333	1.369199
19.4	1.358555
19.41667	1.357188
19.43333	1.365098
19.45	1.374473
19.46667	1.379356
19.48333	1.382383
19.5	1.388145
19.51667	1.394395
19.53333	1.399277
19.55	1.409141
19.56667	1.423203
19.58333	1.434043
19.6	1.43834
19.61667	1.444395
19.63333	1.459922
19.65	1.481406
19.66667	1.499961
19.68333	1.517246
19.7	1.535313
19.71667	1.553184
19.73333	1.566465
19.75	1.574278
19.76667	1.584727
19.78333	1.602891
19.8	1.626426
19.81667	1.648692
19.83333	1.66461
19.85	1.681406
19.86667	1.710313
19.88333	1.751719
19.9	1.794395
19.91667	1.829551
19.93333	1.86207
19.95	1.903281
19.96667	1.957188
19.98333	2.017148
20	2.076328
20.01667	2.126133
20.03333	2.159141
20.05	2.177207
20.06667	2.195274
20.08333	2.218613
20.1	2.236875
20.11667	2.238535
20.13333	2.229453
20.15	2.213828
20.16667	2.190879
20.18333	2.159629
20.2	2.127988
20.21667	2.099277
20.23333	2.063242
20.25	2.017344
20.26667	1.974082
20.28333	1.941563
20.3	1.915781
20.31667	1.894102
20.33333	1.875547
20.35	1.860508
20.36667	1.846836
20.38333	1.835117
20.4	1.822422
20.41667	1.806211
20.43333	1.791465
20.45	1.783945
20.46667	1.782774
20.48333	1.781992
20.5	1.781016
20.51667	1.781504
20.53333	1.782188
20.55	1.77916
20.56667	1.777305
20.58333	1.788535
20.6	1.815684
20.61667	1.858067
20.63333	1.925059
20.65	2.028086
20.66667	2.169004
20.68333	2.350547
20.7	2.581309
20.71667	2.866074
20.73333	3.203086
20.75	3.592246
20.76667	4.028867
20.78333	4.503477
20.8	5.004746
20.81667	5.518711
20.83333	6.02291
20.85	6.489512
20.86667	6.900449
20.88333	7.252599
20.9	7.537657
20.91667	7.740098
20.93333	7.848985
20.95	7.866368
20.96667	7.801231
20.98333	7.667638
21	7.488145
21.01667	7.282579
21.03333	7.065196
21.05	6.854258
21.06667	6.668809
21.08333	6.518809
21.1	6.412754
21.11667	6.359434
21.13333	6.357188
21.15	6.39459
21.16667	6.462754
21.18333	6.560215
21.2	6.682481
21.21667	6.811582
21.23333	6.923398
21.25	7.006016
21.26667	7.062168
21.28333	7.089219
21.3	7.076328
21.31667	7.018321
21.33333	6.92877
21.35	6.821738
21.36667	6.704453
21.38333	6.588926
21.4	6.497031
21.41667	6.445078
21.43333	6.431699
21.45	6.454746
21.46667	6.512656
21.48333	6.595567
21.5	6.685899
21.51667	6.767832
21.53333	6.83502
21.55	6.879844
21.56667	6.890489
21.58333	6.852598
21.6	6.758848
21.61667	6.61168
21.63333	6.418809
21.65	6.188633
21.66667	5.930528
21.68333	5.64957
21.7	5.349277
21.71667	5.04
21.73333	4.743516
21.75	4.474766
21.76667	4.226817
21.78333	3.987071
21.8	3.758359
21.81667	3.557969
21.83333	3.391172
21.85	3.243027
21.86667	3.095762
21.88333	2.951035
21.9	2.82584
21.91667	2.723008
21.93333	2.626817
21.95	2.523301
21.96667	2.418906
21.98333	2.330039
22	2.261192
22.01667	2.202793
22.03333	2.147129
22.05	2.095176
22.06667	2.049571
22.08333	2.013047
22.1	1.98541
22.11667	1.965098
22.13333	1.952988
22.15	1.94752
22.16667	1.949473
22.18333	1.961973
22.2	1.983945
22.21667	2.002207
22.23333	2.008359
22.25	2.013242
22.26667	2.032188
22.28333	2.065781
22.3	2.104551
22.31667	2.141367
22.33333	2.175938
22.35	2.210899
22.36667	2.24752
22.38333	2.281699
22.4	2.306797
22.41667	2.323399
22.43333	2.33668
22.45	2.352793
22.46667	2.365977
22.48333	2.367246
22.5	2.351914
22.51667	2.322617
22.53333	2.284238
22.55	2.242149
22.56667	2.204746
22.58333	2.174375
22.6	2.148984
22.61667	2.126133
22.63333	2.105137
22.65	2.079551
22.66667	2.050352
22.68333	2.026328
22.7	2.009531
22.71667	1.997715
22.73333	1.990098
22.75	1.990879
22.76667	2.001035
22.78333	2.016172
22.8	2.036191
22.81667	2.067441
22.83333	2.112071
22.85	2.168711
22.86667	2.232969
22.88333	2.302207
22.9	2.375449
22.91667	2.461777
22.93333	2.575352
22.95	2.723203
22.96667	2.905528
22.98333	3.127891
23	3.411094
23.01667	3.78541
23.03333	4.275938
23.05	4.90084
23.06667	5.684434
23.08333	6.650645
23.1	7.81295
23.11667	9.172032
23.13333	10.72477
23.15	12.44752
23.16667	14.28336
23.18333	16.16852
23.2	18.0483
23.21667	19.86422
23.23333	21.53619
23.25	22.97057
23.26667	24.0941
23.28333	24.86724
23.3	25.286
23.31667	25.35768
23.33333	25.08932
23.35	24.50123
23.36667	23.64156
23.38333	22.57213
23.4	21.34947
23.41667	20.02018
23.43333	18.63453
23.45	17.24498
23.46667	15.8942
23.48333	14.60572
23.5	13.38795
23.51667	12.24635
23.53333	11.18873
23.55	10.21588
23.56667	9.325646
23.58333	8.523204
23.6	7.807091
23.61667	7.16461
23.63333	6.581797
23.65	6.056211
23.66667	5.588145
23.68333	5.172812
23.7	4.811094
23.71667	4.501621
23.73333	4.237168
23.75	4.010508
23.76667	3.823106
23.78333	3.681699
23.8	3.586094
23.81667	3.527891
23.83333	3.50084
23.85	3.506797
23.86667	3.54791
23.88333	3.618125
23.9	3.702793
23.91667	3.787461
23.93333	3.864512
23.95	3.935899
23.96667	4.006406
23.98333	4.073106
24	4.12418
24.01667	4.152207
24.03333	4.158457
24.05	4.144102
24.06667	4.104941
24.08333	4.043125
24.1	3.970567
24.11667	3.895859
24.13333	3.819004
24.15	3.741563
24.16667	3.669492
24.18333	3.605918
24.2	3.552207
24.21667	3.509629
24.23333	3.482383
24.25	3.467344
24.26667	3.460899
24.28333	3.463633
24.3	3.483262
24.31667	3.524277
24.33333	3.582481
24.35	3.646739
24.36667	3.708946
24.38333	3.762949
24.4	3.802696
24.41667	3.825449
24.43333	3.837168
24.45	3.844004
24.46667	3.844492
24.48333	3.834922
24.5	3.813535
24.51667	3.779551
24.53333	3.741367
24.55	3.716758
24.56667	3.720371
24.58333	3.754941
24.6	3.827793
24.61667	3.973008
24.63333	4.233653
24.65	4.644492
24.66667	5.239512
24.68333	6.060508
24.7	7.150449
24.71667	8.548594
24.73333	10.29469
24.75	12.41725
24.76667	14.91715
24.78333	17.76832
24.8	20.93023
24.81667	24.33434
24.83333	27.87154
24.85	31.41139
24.86667	34.82486
24.88333	37.99029
24.9	40.78004
24.91667	43.0691
24.93333	44.76285
24.95	45.81695
24.96667	46.22545
24.98333	46.01197
25	45.21656
25.01667	43.89527
25.03333	42.12291
25.05	40.00885
25.06667	37.67262
25.08333	35.20318
25.1	32.66666
25.11667	30.12945
25.13333	27.65523
25.15	25.28365
25.16667	23.0401
25.18333	20.94361
25.2	19.00211
25.21667	17.21656
25.23333	15.58317
25.25	14.09508
25.26667	12.74362
25.28333	11.5276
25.3	10.43893
25.31667	9.465002
25.33333	8.591856
25.35	7.815587
25.36667	7.129845
25.38333	6.524278
25.4	5.990391
25.41667	5.520566
25.43333	5.107383
25.45	4.744981
25.46667	4.436484
25.48333	4.17916
25.5	3.96041
25.51667	3.771934
25.53333	3.619004
25.55	3.509727
25.56667	3.436875
25.58333	3.391856
25.6	3.374961
25.61667	3.391563
25.63333	3.438438
25.65	3.502403
25.66667	3.578086
25.68333	3.672422
25.7	3.791172
25.71667	3.926621
25.73333	4.06334
25.75	4.194492
25.76667	4.319395
25.78333	4.434824
25.8	4.534238
25.81667	4.615586
25.83333	4.688047
25.85	4.756797
25.86667	4.819004
25.88333	4.869493
25.9	4.904942
25.91667	4.926621
25.93333	4.940586
25.95	4.949082
25.96667	4.953867
25.98333	4.954746
26	4.952305
26.01667	4.946738
26.03333	4.935996
26.05	4.911191
26.06667	4.866172
26.08333	4.799863
26.1	4.721152
26.11667	4.640586
26.13333	4.556113
26.15	4.460215
26.16667	4.351523
26.18333	4.240391
26.2	4.132578
26.21667	4.020664
26.23333	3.89459
26.25	3.761387
26.26667	3.636192
26.28333	3.523692
26.3	3.41793
26.31667	3.319785
26.33333	3.238047
26.35	3.175156
26.36667	3.130723
26.38333	3.107871
26.4	3.109922
26.41667	3.147813
26.43333	3.240879
26.45	3.40836
26.46667	3.664707
26.48333	4.026719
26.5	4.513535
26.51667	5.145664
26.53333	5.946641
26.55	6.931211
26.56667	8.096446
26.58333	9.433557
26.6	10.93385
26.61667	12.57184
26.63333	14.29742
26.65	16.05416
26.66667	17.78258
26.68333	19.41178
26.7	20.86666
26.71667	22.08287
26.73333	23.01871
26.75	23.65104
26.76667	23.96275
26.78333	23.94918
26.8	23.62906
26.81667	23.04859
26.83333	22.2525
26.85	21.26803
26.86667	20.12945
26.88333	18.89205
26.9	17.61744
26.91667	16.35065
26.93333	15.11608
26.95	13.9316
26.96667	12.80992
26.98333	11.75729
27	10.7733
27.01667	9.858459
27.03333	9.018809
27.05	8.25797
27.06667	7.575548
27.08333	6.966953
27.1	6.425547
27.11667	5.944883
27.13333	5.522325
27.15	5.153867
27.16667	4.829258
27.18333	4.544492
27.2	4.306993
27.21667	4.123692
27.23333	3.990977
27.25	3.904649
27.26667	3.868613
27.28333	3.887754
27.3	3.964902
27.31667	4.108945
27.33333	4.324375
27.35	4.60875
27.36667	4.958555
27.38333	5.373594
27.4	5.853477
27.41667	6.391953
27.43333	6.97916
27.45	7.595665
27.46667	8.209435
27.48333	8.796837
27.5	9.348693
27.51667	9.849279
27.53333	10.27086
27.55	10.59186
27.56667	10.80504
27.58333	10.90992
27.6	10.90426
27.61667	10.78815
27.63333	10.57154
27.65	10.2733
27.66667	9.911291
27.68333	9.499865
27.7	9.055626
27.71667	8.593907
27.73333	8.12545
27.75	7.657969
27.76667	7.196641
27.78333	6.746543
27.8	6.320469
27.81667	5.933262
27.83333	5.584825
27.85	5.26998
27.86667	4.984336
27.88333	4.727207
27.9	4.49918
27.91667	4.298887
27.93333	4.12086
27.95	3.962461
27.96667	3.827598
27.98333	3.714805
28	3.618125
28.01667	3.53541
28.03333	3.46666
28.05	3.404453
28.06667	3.344883
28.08333	3.293125
28.1	3.249863
28.11667	3.209629
28.13333	3.168906
28.15	3.130039
28.16667	3.092735
28.18333	3.05543
28.2	3.018321
28.21667	2.986387
28.23333	2.961777
28.25	2.940586
28.26667	2.91793
28.28333	2.894883
28.3	2.875254
28.31667	2.866367
28.33333	2.873789
28.35	2.900254
28.36667	2.939023
28.38333	2.977988
28.4	3.012363
28.41667	3.050645
28.43333	3.101524
28.45	3.160508
28.46667	3.220273
28.48333	3.287071
28.5	3.371543
28.51667	3.471836
28.53333	3.581504
28.55	3.698203
28.56667	3.825059
28.58333	3.96832
28.6	4.132871
28.61667	4.316465
28.63333	4.506992
28.65	4.702695
28.66667	4.915098
28.68333	5.150059
28.7	5.396055
28.71667	5.631114
28.73333	5.841856
28.75	6.018907
28.76667	6.156309
28.78333	6.251328
28.8	6.30211
28.81667	6.307969
28.83333	6.272422
28.85	6.204062
28.86667	6.109141
28.88333	5.993711
28.9	5.864024
28.91667	5.723887
28.93333	5.575449
28.95	5.428867
28.96667	5.29791
28.98333	5.191563
29	5.114121
29.01667	5.061973
29.03333	5.02252
29.05	4.983848
29.06667	4.945567
29.08333	4.914219
29.1	4.894883
29.11667	4.882969
29.13333	4.874864
29.15	4.868906
29.16667	4.869688
29.18333	4.882871
29.2	4.910605
29.21667	4.952793
29.23333	5.009824
29.25	5.08375
29.26667	5.180723
29.28333	5.300157
29.3	5.433946
29.31667	5.571543
29.33333	5.709922
29.35	5.84459
29.36667	5.967051
29.38333	6.070664
29.4	6.151231
29.41667	6.206309
29.43333	6.228868
29.45	6.209336
29.46667	6.14918
29.48333	6.05543
29.5	5.936875
29.51667	5.798789
29.53333	5.640977
29.55	5.46207
29.56667	5.266074
29.58333	5.067539
29.6	4.879844
29.61667	4.702305
29.63333	4.526231
29.65	4.349473
29.66667	4.183652
29.68333	4.040879
29.7	3.919102
29.71667	3.803965
29.73333	3.689414
29.75	3.584434
29.76667	3.499668
29.78333	3.433555
29.8	3.37418
29.81667	3.310996
29.83333	3.244492
29.85	3.185215
29.86667	3.13961
29.88333	3.102012
29.9	3.070176
29.91667	3.048692
29.93333	3.04
29.95	3.03375
29.96667	3.024375
29.98333	3.015
30	3.010215
30.01667	3.007871
30.03333	3.005039
30.05	3.002793
30.06667	3.005625
30.08333	3.01666
30.1	3.036289
30.11667	3.063633
30.13333	3.091953
30.15	3.115196
30.16667	3.134238
30.18333	3.160606
30.2	3.199375
30.21667	3.252891
30.23333	3.321348
30.25	3.409238
30.26667	3.521836
30.28333	3.667051
30.3	3.852988
30.31667	4.09
30.33333	4.383359
30.35	4.730723
30.36667	5.126035
30.38333	5.5692
30.4	6.059141
30.41667	6.581992
30.43333	7.116465
30.45	7.648985
30.46667	8.170665
30.48333	8.660997
30.5	9.089806
30.51667	9.429162
30.53333	9.664514
30.55	9.792541
30.56667	9.816174
30.58333	9.743908
30.6	9.587072
30.61667	9.352111
30.63333	9.046837
30.65	8.685802
30.66667	8.296446
30.68333	7.901427
30.7	7.511485
30.71667	7.129161
30.73333	6.757188
30.75	6.396934
30.76667	6.050742
30.78333	5.729649
30.8	5.442246
30.81667	5.181895
30.83333	4.938047
30.85	4.710996
30.86667	4.513633
30.88333	4.350938
30.9	4.210703
30.91667	4.078574
30.93333	3.954551
30.95	3.851231
30.96667	3.767539
30.98333	3.689805
31	3.60875
31.01667	3.529063
31.03333	3.46041
31.05	3.406211
31.06667	3.358848
31.08333	3.311582
31.1	3.270566
31.11667	3.239024
31.13333	3.208652
31.15	3.177012
31.16667	3.15416
31.18333	3.143809
31.2	3.13375
31.21667	3.121738
31.23333	3.114609
31.25	3.116856
31.26667	3.11832
31.28333	3.11334
31.3	3.108555
31.31667	3.11334
31.33333	3.123496
31.35	3.129356
31.36667	3.125547
31.38333	3.119004
31.4	3.118223
31.41667	3.123301
31.43333	3.128965
31.45	3.132285
31.46667	3.132774
31.48333	3.127207
31.5	3.114512
31.51667	3.102988
31.53333	3.103281
31.55	3.108848
31.56667	3.105332
31.58333	3.089024
31.6	3.076231
31.61667	3.073301
31.63333	3.072813
31.65	3.064512
31.66667	3.046934
31.68333	3.031016
31.7	3.025059
31.71667	3.028184
31.73333	3.032285
31.75	3.030039
31.76667	3.025059
31.78333	3.023789
31.8	3.028379
31.81667	3.032188
31.83333	3.030039
31.85	3.030039
31.86667	3.04
31.88333	3.056504
31.9	3.06627
31.91667	3.063535
31.93333	3.05875
31.95	3.065293
31.96667	3.085703
31.98333	3.113828
32	3.145078
32.01667	3.186875
32.03333	3.240684
32.05	3.303965
32.06667	3.382969
32.08333	3.481992
32.1	3.592051
32.11667	3.696348
32.13333	3.79127
32.15	3.883848
32.16667	3.979844
32.18333	4.073985
32.2	4.156211
32.21667	4.220957
32.23333	4.270664
32.25	4.305137
32.26667	4.31793
32.28333	4.307188
32.3	4.278672
32.31667	4.234824
32.33333	4.17623
32.35	4.105625
32.36667	4.028379
32.38333	3.948106
32.4	3.871738
32.41667	3.804942
32.43333	3.747227
32.45	3.69166
32.46667	3.637461
32.48333	3.585703
32.5	3.536973
32.51667	3.486289
32.53333	3.434824
32.55	3.392735
32.56667	3.367539
32.58333	3.353086
32.6	3.338242
32.61667	3.321152
32.63333	3.303379
32.65	3.289121
32.66667	3.280332
32.68333	3.275254
32.7	3.270078
32.71667	3.260996
32.73333	3.248106
32.75	3.232383
32.76667	3.215684
32.78333	3.20377
32.8	3.196152
32.81667	3.191074
32.83333	3.184824
32.85	3.170176
32.86667	3.148984
32.88333	3.126328
32.9	3.108653
32.91667	3.094492
32.93333	3.08541
32.95	3.080137
32.96667	3.074766
32.98333	3.06334
33	3.045371
33.01667	3.032969
33.03333	3.031211
33.05	3.035117
33.06667	3.034043
33.08333	3.028379
33.1	3.025645
33.11667	3.030235
33.13333	3.038731
33.15	3.046055
33.16667	3.050156
33.18333	3.055723
33.2	3.068906
33.21667	3.086484
33.23333	3.102695
33.25	3.108653
33.26667	3.10875
33.28333	3.113828
33.3	3.126426
33.31667	3.141465
33.33333	3.155332
33.35	3.172422
33.36667	3.18961
33.38333	3.195469
33.4	3.19459
33.41667	3.198496
33.43333	3.206797
33.45	3.213047
33.46667	3.212559
33.48333	3.2025
33.5	3.185215
33.51667	3.171543
33.53333	3.16793
33.55	3.166856
33.56667	3.163438
33.58333	3.160801
33.6	3.159336
33.61667	3.154746
33.63333	3.147617
33.65	3.143711
33.66667	3.143906
33.68333	3.141074
33.7	3.13375
33.71667	3.133457
33.73333	3.145176
33.75	3.156211
33.76667	3.153379
33.78333	3.140195
33.8	3.128965
33.81667	3.126719
33.83333	3.129746
33.85	3.138535
33.86667	3.152891
33.88333	3.161387
33.9	3.15543
33.91667	3.143125
33.93333	3.140488
33.95	3.147031
33.96667	3.152598
33.98333	3.160606
34	3.18043
34.01667	3.201133
34.03333	3.206309
34.05	3.198008
34.06667	3.18961
34.08333	3.184922
34.1	3.179649
34.11667	3.178184
34.13333	3.186875
34.15	3.200938
34.16667	3.212852
34.18333	3.21666
34.2	3.211387
34.21667	3.204063
34.23333	3.20084
34.25	3.199766
34.26667	3.19459
34.28333	3.18541
34.3	3.176328
34.31667	3.172031
34.33333	3.173887
34.35	3.183262
34.36667	3.186778
34.38333	3.175156
34.4	3.161777
34.41667	3.162168
34.43333	3.172617
34.45	3.17916
34.46667	3.177989
34.48333	3.175352
34.5	3.175938
34.51667	3.18082
34.53333	3.18336
34.55	3.182481
34.56667	3.184727
34.58333	3.19293
34.6	3.197422
34.61667	3.190586
34.63333	3.181699
34.65	3.181016
34.66667	3.189121
34.68333	3.199082
34.7	3.20709
34.71667	3.207578
34.73333	3.197031
34.75	3.177891
34.76667	3.160703
34.78333	3.153086
34.8	3.156797
34.81667	3.165977
34.83333	3.173301
34.85	3.178672
34.86667	3.184434
34.88333	3.190879
34.9	3.199473
34.91667	3.211777
34.93333	3.225938
34.95	3.233848
34.96667	3.234434
34.98333	3.231699
35	3.226719
35.01667	3.214902
35.03333	3.202695
35.05	3.197129
35.06667	3.198887
35.08333	3.201621
35.1	3.203379
35.11667	3.208359
35.13333	3.217539
35.15	3.228672
35.16667	3.237656
35.18333	3.247227
35.2	3.256895
35.21667	3.265488
35.23333	3.269199
35.25	3.266465
35.26667	3.256895
35.28333	3.24586
35.3	3.24332
35.31667	3.25377
35.33333	3.270762
35.35	3.28082
35.36667	3.281895
35.38333	3.281504
35.4	3.287364
35.41667	3.296836
35.43333	3.302109
35.45	3.302598
35.46667	3.305527
35.48333	3.313535
35.5	3.320274
35.51667	3.321836
35.53333	3.321348
35.55	3.321445
35.56667	3.318418
35.58333	3.313731
35.6	3.314121
35.61667	3.319688
35.63333	3.322813
35.65	3.319688
35.66667	3.314414
35.68333	3.317051
35.7	3.327695
35.71667	3.332774
35.73333	3.324863
35.75	3.315293
35.76667	3.31959
35.78333	3.334239
35.8	3.347813
35.81667	3.356016
35.83333	3.357871
35.85	3.349766
35.86667	3.332871
35.88333	3.317344
35.9	3.309336
35.91667	3.305918
35.93333	3.305039
35.95	3.305039
35.96667	3.302989
35.98333	3.299766
36	3.301524
36.01667	3.308164
36.03333	3.310313
36.05	3.306211
36.06667	3.304258
36.08333	3.307969
36.1	3.315781
36.11667	3.329746
36.13333	3.344492
36.15	3.352793
36.16667	3.352598
36.18333	3.350449
36.2	3.345273
36.21667	3.339805
36.23333	3.339512
36.25	3.349277
36.26667	3.366563
36.28333	3.384141
36.3	3.395664
36.31667	3.395762
36.33333	3.387168
36.35	3.379649
36.36667	3.380723
36.38333	3.389317
36.4	3.398496
36.41667	3.400352
36.43333	3.39459
36.45	3.388145
36.46667	3.386777
36.48333	3.387559
36.5	3.382481
36.51667	3.375742
36.53333	3.375742
36.55	3.386094
36.56667	3.401914
36.58333	3.414902
36.6	3.41959
36.61667	3.414609
36.63333	3.407285
36.65	3.4025
36.66667	3.404356
36.68333	3.412461
36.7	3.415879
36.71667	3.412852
36.73333	3.412949
36.75	3.421934
36.76667	3.427012
36.78333	3.419688
36.8	3.409043
36.81667	3.404551
36.83333	3.404258
36.85	3.408262
36.86667	3.416953
36.88333	3.426328
36.9	3.431699
36.91667	3.434434
36.93333	3.439317
36.95	3.441465
36.96667	3.435606
36.98333	3.425449
37	3.42252
37.01667	3.42877
37.03333	3.440293
37.05	3.451035
37.06667	3.459336
37.08333	3.463047
37.1	3.466367
37.11667	3.469785
37.13333	3.468028
37.15	3.461387
37.16667	3.45709
37.18333	3.461094
37.2	3.470469
37.21667	3.479063
37.23333	3.480235
37.25	3.477598
37.26667	3.481211
37.28333	3.498887
37.3	3.524082
37.31667	3.540781
37.33333	3.542637
37.35	3.529649
37.36667	3.505332
37.38333	3.481406
37.4	3.469492
37.41667	3.476914
37.43333	3.489414
37.45	3.494492
37.46667	3.493711
37.48333	3.493809
37.5	3.499863
37.51667	3.507676
37.53333	3.510606
37.55	3.509824
37.56667	3.511777
37.58333	3.516856
37.6	3.514414
37.61667	3.505234
37.63333	3.49957
37.65	3.497813
37.66667	3.498399
37.68333	3.503281
37.7	3.512168
37.71667	3.516563
37.73333	3.511777
37.75	3.510801
37.76667	3.517539
37.78333	3.529453
37.8	3.544883
37.81667	3.558848
37.83333	3.563926
37.85	3.563633
37.86667	3.565879
37.88333	3.567734
37.9	3.564903
37.91667	3.559336
37.93333	3.552793
37.95	3.545567
37.96667	3.541172
37.98333	3.545371
38	3.556309
38.01667	3.56334
38.03333	3.567051
38.05	3.573692
38.06667	3.583359
38.08333	3.590781
38.1	3.593516
38.11667	3.593613
38.13333	3.594004
38.15	3.600938
38.16667	3.613731
38.18333	3.622324
38.2	3.615586
38.21667	3.59791
38.23333	3.585899
38.25	3.587363
38.26667	3.59166
38.28333	3.591465
38.3	3.592735
38.31667	3.598691
38.33333	3.601035
38.35	3.595469
38.36667	3.588047
38.38333	3.585215
38.4	3.590684
38.41667	3.602988
38.43333	3.612071
38.45	3.610117
38.46667	3.601817
38.48333	3.597422
38.5	3.604746
38.51667	3.618223
38.53333	3.631797
38.55	3.640293
38.56667	3.639707
38.58333	3.633945
38.6	3.630039
38.61667	3.627793
38.63333	3.629649
38.65	3.638438
38.66667	3.647422
38.68333	3.646152
38.7	3.635313
38.71667	3.628086
38.73333	3.631211
38.75	3.643125
38.76667	3.653672
38.78333	3.655918
38.8	3.650059
38.81667	3.643028
38.83333	3.63668
38.85	3.632481
38.86667	3.630039
38.88333	3.627403
38.9	3.623985
38.91667	3.623789
38.93333	3.632383
38.95	3.650059
38.96667	3.670567
38.98333	3.688731
39	3.696055
39.01667	3.692637
39.03333	3.684238
39.05	3.676621
39.06667	3.674961
39.08333	3.682481
39.1	3.701328
39.11667	3.725547
39.13333	3.74752
39.15	3.763828
39.16667	3.775156
39.18333	3.782285
39.2	3.790781
39.21667	3.805918
39.23333	3.82418
39.25	3.836777
39.26667	3.843418
39.28333	3.855918
39.3	3.883164
39.31667	3.921836
39.33333	3.957774
39.35	3.984238
39.36667	4.005137
39.38333	4.028769
39.4	4.052989
39.41667	4.08043
39.43333	4.112949
39.45	4.150254
39.46667	4.18375
39.48333	4.207676
39.5	4.226817
39.51667	4.247617
39.53333	4.277012
39.55	4.312461
39.56667	4.349961
39.58333	4.390098
39.6	4.433555
39.61667	4.476328
39.63333	4.512168
39.65	4.541953
39.66667	4.574375
39.68333	4.612266
39.7	4.649766
39.71667	4.683262
39.73333	4.720078
39.75	4.77125
39.76667	4.831113
39.78333	4.883067
39.8	4.919785
39.81667	4.95084
39.83333	4.987559
39.85	5.030625
39.86667	5.077207
39.88333	5.124864
39.9	5.173008
39.91667	5.218614
39.93333	5.261582
39.95	5.305137
39.96667	5.35084
39.98333	5.397325
40	5.440196
40.01667	5.480723
40.03333	5.524863
40.05	5.575449
40.06667	5.626914
40.08333	5.672324
40.1	5.710606
40.11667	5.742734
40.13333	5.776426
40.15	5.82125
40.16667	5.878672
40.18333	5.938731
40.2	5.999375
40.21667	6.065977
40.23333	6.134824
40.25	6.191855
40.26667	6.232285
40.28333	6.267344
40.3	6.309824
40.31667	6.367344
40.33333	6.430625
40.35	6.484727
40.36667	6.525254
40.38333	6.559629
40.4	6.595957
40.41667	6.633067
40.43333	6.670078
40.45	6.709629
40.46667	6.752891
40.48333	6.79791
40.5	6.839805
40.51667	6.876817
40.53333	6.913828
40.55	6.958555
40.56667	7.01002
40.58333	7.065488
40.6	7.124474
40.61667	7.190392
40.63333	7.263731
40.65	7.337364
40.66667	7.399766
40.68333	7.443126
40.7	7.469786
40.71667	7.483849
40.73333	7.482677
40.75	7.46422
40.76667	7.43502
40.78333	7.403673
40.8	7.374571
40.81667	7.349376
40.83333	7.329259
40.85	7.313634
40.86667	7.30211
40.88333	7.301427
40.9	7.31256
40.91667	7.325938
40.93333	7.335997
40.95	7.343516
40.96667	7.349669
40.98333	7.351232
41	7.354552
41.01667	7.364024
41.03333	7.376036
41.05	7.385509
41.06667	7.389903
41.08333	7.391368
41.1	7.39879
41.11667	7.41422
41.13333	7.429161
41.15	7.43463
41.16667	7.437364
41.18333	7.450548
41.2	7.469981
41.21667	7.484044
41.23333	7.492149
41.25	7.508067
41.26667	7.533458
41.28333	7.557872
41.3	7.578185
41.31667	7.597716
41.33333	7.617247
41.35	7.634337
41.36667	7.649083
41.38333	7.661485
41.4	7.675059
41.41667	7.689219
41.43333	7.69752
41.45	7.705235
41.46667	7.720958
41.48333	7.744884
41.5	7.765196
41.51667	7.780528
41.53333	7.794005
41.55	7.804845
41.56667	7.812462
41.58333	7.821935
41.6	7.83668
41.61667	7.851524
41.63333	7.862462
41.65	7.872228
41.66667	7.886583
41.68333	7.907872
41.7	7.935802
41.71667	7.963439
41.73333	7.985997
41.75	7.998985
41.76667	8.002892
41.78333	8.001524
41.8	8.003087
41.81667	8.013341
41.83333	8.031212
41.85	8.051231
41.86667	8.069982
41.88333	8.083849
41.9	8.092443
41.91667	8.095372
41.93333	8.095274
41.95	8.098204
41.96667	8.105626
41.98333	8.118614
42	8.140587
42.01667	8.16627
42.03333	8.184825
42.05	8.19088
42.06667	8.196251
42.08333	8.210314
42.1	8.228673
42.11667	8.239415
42.13333	8.24254
42.15	8.241661
42.16667	8.235704
42.18333	8.230431
42.2	8.232384
42.21667	8.241466
42.23333	8.252012
42.25	8.258555
42.26667	8.25963
42.28333	8.259142
42.3	8.269102
42.31667	8.291466
42.33333	8.31881
42.35	8.335314
42.36667	8.339903
42.38333	8.340978
42.4	8.341466
42.41667	8.33961
42.43333	8.335118
42.45	8.334142
42.46667	8.333067
42.48333	8.326329
42.5	8.321055
42.51667	8.327891
42.53333	8.345177
42.55	8.358263
42.56667	8.361387
42.58333	8.35924
42.6	8.356895
42.61667	8.355138
42.63333	8.354942
42.65	8.358458
42.66667	8.36295
42.68333	8.362169
42.7	8.356895
42.71667	8.355235
42.73333	8.358165
42.75	8.359337
42.76667	8.354551
42.78333	8.347911
42.8	8.343224
42.81667	8.341563
42.83333	8.340978
42.85	8.333361
42.86667	8.311388
42.88333	8.278379
42.9	8.24586
42.91667	8.221056
42.93333	8.20504
42.95	8.202403
42.96667	8.217638
42.98333	8.246056
43	8.275255
43.01667	8.297422
43.03333	8.318028
43.05	8.33922
43.06667	8.35504
43.08333	8.357091
43.1	8.343224
43.11667	8.316271
43.13333	8.271837
43.15	8.197813
43.16667	8.080431
43.18333	7.918907
43.2	7.732677
43.21667	7.537267
43.23333	7.32838
43.25	7.093516
43.26667	6.836973
43.28333	6.579062
43.3	6.336973
43.31667	6.112657
43.33333	5.904942
43.35	5.717149
43.36667	5.546836
43.38333	5.381602
43.4	5.212949
43.41667	5.046348
43.43333	4.892539
43.45	4.757383
43.46667	4.63541
43.48333	4.509531
43.5	4.36793
43.51667	4.218711
43.53333	4.08248
43.55	3.967051
43.56667	3.858262
43.58333	3.745664
43.6	3.634336
43.61667	3.525254
43.63333	3.417735
43.65	3.316563
43.66667	3.229551
43.68333	3.149473
43.7	3.061192
43.71667	2.960117
43.73333	2.857969
43.75	2.769492
43.76667	2.694981
43.78333	2.622324
43.8	2.543418
43.81667	2.461875
43.83333	2.383652
43.85	2.307188
43.86667	2.231504
43.88333	2.159824
43.9	2.09459
43.91667	2.029942
43.93333	1.96207
43.95	1.895859
43.96667	1.835801
43.98333	1.776621
44	1.715879
44.01667	1.659727
44.03333	1.612266
44.05	1.565293
44.06667	1.514512
44.08333	1.467637
44.1	1.430625
44.11667	1.395469
44.13333	1.354258
44.15	1.311777
44.16667	1.273301
44.18333	1.236485
44.2	1.19459
44.21667	1.150352
44.23333	1.109434
44.25	1.076817
44.26667	1.053574
44.28333	1.038731
44.3	1.025938
44.31667	1.005332
44.33333	0.9774025
44.35	0.948301
44.36667	0.922129
44.38333	0.8988869
44.4	0.8775978
44.41667	0.8588478
44.43333	0.8403908
44.45	0.8241798
44.46667	0.8093361
44.48333	0.791172
44.5	0.7687111
44.51667	0.7493752
44.53333	0.7375587
44.55	0.722715
44.56667	0.7010353
44.58333	0.6781837
44.6	0.6618751
44.61667	0.6487892
44.63333	0.6351174
44.65	0.6199806
44.66667	0.5993751
44.68333	0.5731056
44.7	0.5481056
44.71667	0.5310158
44.73333	0.5196877
44.75	0.5055275
44.76667	0.4839455
44.78333	0.4526955
44.8	0.4170509
44.81667	0.3853126
44.83333	0.3616799
44.85	0.3439064
44.86667	0.3270119
44.88333	0.310508
44.9	0.2975197
44.91667	0.2860939
44.93333	0.2697853
44.95	0.2517189
44.96667	0.238633
44.98333	0.2271095
45	0.2084572
45.01667	0.1873634
45.03333	0.1757423
45.05	0.1782814
45.06667	0.1830666
45.08333	0.1750588
45.1	0.1595314
45.11667	0.1452736
45.13333	0.1344337
45.15	0.12584
45.16667	0.116172
45.18333	0.1032814
45.2	0.08980484
45.21667	0.08726577
45.23333	0.09566422
45.25	0.1018166
45.26667	0.09605484
45.28333	0.08941422
45.3	0.09107437
45.31667	0.09322281
45.33333	0.08863296
45.35	0.07916031
45.36667	0.066465
45.38333	0.04869156
45.4	0.03111343
45.41667	0.0220314
45.43333	0.02398453
45.45	0.02808609
45.46667	0.02945328
45.48333	0.03101578
45.5	0.03443374
45.51667	0.03707046
45.53333	0.03501968
45.55	0.0314064
45.56667	0.02994156
45.58333	0.03091812
45.6	0.02974625
45.61667	0.02154312
45.63333	0.004843903
45.65	-0.01292953
45.66667	-0.02591782
45.68333	-0.03021469
45.7	-0.02367172
45.71667	-0.01644516
45.73333	-0.01507797
45.75	-0.01537094
45.76667	-0.01097641
45.78333	-0.00394516
45.8	-0.00472641
45.81667	-0.01488266
45.83333	-0.02533188
45.85	-0.02767563
45.86667	-0.0201561
45.88333	-0.00863266
45.9	-0.0006248474
45.91667	-0.0007225036
45.93333	-0.005214691
45.95	-0.01048813
45.96667	-0.01927719
45.98333	-0.03392563
46	-0.04124985
46.01667	-0.03412094
46.03333	-0.02181625
46.05	-0.01966782
46.06667	-0.02767563
46.08333	-0.03441391
46.1	-0.03373032
46.11667	-0.02992172
46.13333	-0.02787094
46.15	-0.03138657
46.16667	-0.03958969
46.18333	-0.0498436
46.2	-0.05824203
46.21667	-0.06253891
46.23333	-0.06458969
46.25	-0.06419907
46.26667	-0.05960922
46.28333	-0.05257797
46.3	-0.04593735
46.31667	-0.04271469
46.33333	-0.04554672
46.35	-0.05316391
46.36667	-0.06039047
46.38333	-0.06361313
46.4	-0.06615219
46.41667	-0.06996079
46.43333	-0.06927719
46.45	-0.064785
46.46667	-0.06400375
46.48333	-0.0663475
46.5	-0.06263657
46.51667	-0.05023422
46.53333	-0.04037094
46.55	-0.04261703
46.56667	-0.05599594
46.58333	-0.07210922
46.6	-0.08080063
46.61667	-0.08207016
46.63333	-0.0826561
46.65	-0.08382797
46.66667	-0.07806625
46.68333	-0.06302719
46.7	-0.05101547
46.71667	-0.05179672
46.73333	-0.06302719
46.75	-0.07806625
46.76667	-0.0920311
46.78333	-0.1050194
46.8	-0.1129295
46.81667	-0.108828
46.83333	-0.09847641
46.85	-0.08929672
46.86667	-0.08236313
46.88333	-0.07503891
46.9	-0.07582016
46.91667	-0.0904686
46.93333	-0.1118553
46.95	-0.1222069
46.96667	-0.1157616
46.98333	-0.1039452
47	-0.1010155
47.01667	-0.1041405
47.03333	-0.1024803
47.05	-0.0935936
47.06667	-0.08646469
47.08333	-0.08626938
47.1	-0.09105454
47.11667	-0.09544907
47.13333	-0.0935936
47.15	-0.08919907
47.16667	-0.0913475
47.18333	-0.09749985
47.2	-0.09730454
47.21667	-0.08792953
47.23333	-0.07845688
47.25	-0.07464828
47.26667	-0.07210922
47.28333	-0.07201157
47.3	-0.07748032
47.31667	-0.08724594
47.33333	-0.09408188
47.35	-0.09564438
47.36667	-0.09476547
47.38333	-0.09408188
47.4	-0.09427719
47.41667	-0.09652328
47.43333	-0.09876938
47.45	-0.09867172
47.46667	-0.09798813
47.48333	-0.09867172
47.5	-0.09457016
47.51667	-0.07972641
47.53333	-0.06332016
47.55	-0.05912094
47.56667	-0.06498031
47.58333	-0.07337876
47.6	-0.07894516
47.61667	-0.08177719
47.63333	-0.07865219
47.65	-0.07230453
47.66667	-0.0701561
47.68333	-0.07630844
47.7	-0.0882225
47.71667	-0.09574203
47.73333	-0.09105454
47.75	-0.07874985
47.76667	-0.07113266
47.78333	-0.07249985
47.8	-0.07787094
47.81667	-0.08363266
47.83333	-0.08958969
47.85	-0.09271469
47.86667	-0.08871078
47.88333	-0.07826157
47.9	-0.06888656
47.91667	-0.07074203
47.93333	-0.08070298
47.95	-0.08939438
47.96667	-0.09330063
47.98333	-0.09564438
48	-0.09583969
48.01667	-0.09681626
48.03333	-0.1004295
48.05	-0.1032616
48.06667	-0.1007225
48.08333	-0.09447251
48.1	-0.08900376
48.11667	-0.0842186
48.13333	-0.07943344
48.15	-0.0757225
48.16667	-0.07210922
48.18333	-0.06712876
48.2	-0.06517563
48.21667	-0.06839828
48.23333	-0.07367172
48.25	-0.07972641
48.26667	-0.08871078
48.28333	-0.09710922
48.3	-0.1016991
48.31667	-0.1009178
48.33333	-0.09232406
48.35	-0.07621078
48.36667	-0.06107407
48.38333	-0.05960922
48.4	-0.06878891
48.41667	-0.0757225
48.43333	-0.07210922
48.45	-0.06351547
48.46667	-0.06117172
48.48333	-0.06732406
48.5	-0.07425766
48.51667	-0.07367172
48.53333	-0.06546859
48.55	-0.05843735
48.56667	-0.05501938
48.58333	-0.05482407
48.6	-0.05999985
48.61667	-0.07220688
48.63333	-0.08626938
48.65	-0.09476547
48.66667	-0.09212875
48.68333	-0.08089828
48.7	-0.07191391
48.71667	-0.07181625
48.73333	-0.07777329
48.75	-0.08246078
48.76667	-0.083535
48.78333	-0.08001938
48.8	-0.07406235
48.81667	-0.07132797
48.83333	-0.06937484
48.85	-0.06214828
48.86667	-0.05121078
48.88333	-0.04574203
48.9	-0.05199204
48.91667	-0.06468735
48.93333	-0.07162094
48.95	-0.06888656
48.96667	-0.06595688
48.98333	-0.07064438
49	-0.07757797
49.01667	-0.07689438
49.03333	-0.07054672
49.05	-0.06498031
49.06667	-0.06322251
49.08333	-0.06156235
49.1	-0.05814438
49.11667	-0.05550766
49.13333	-0.05374985
49.15	-0.05208969
49.16667	-0.05248032
49.18333	-0.05736313
49.2	-0.06507798
49.21667	-0.07279281
49.23333	-0.07728501
49.25	-0.08080063
49.26667	-0.08216782
49.28333	-0.07669906
49.3	-0.06292953
49.31667	-0.052285
49.33333	-0.05521469
49.35	-0.06966782
49.36667	-0.0819725
49.38333	-0.08177719
49.4	-0.07298813
49.41667	-0.06507798
49.43333	-0.06312485
49.45	-0.06380844
49.46667	-0.0607811
49.48333	-0.05443344
49.5	-0.05101547
49.51667	-0.05570297
49.53333	-0.06673813
49.55	-0.07728501
49.56667	-0.08246078
49.58333	-0.08158188
49.6	-0.07425766
49.61667	-0.06986313
49.63333	-0.07708969
49.65	-0.08949204
49.66667	-0.09232406
49.68333	-0.08441391
49.7	-0.0757225
49.71667	-0.07455063
49.73333	-0.0842186
49.75	-0.09935532
49.76667	-0.1093163
49.78333	-0.1064842
49.8	-0.09310532
49.81667	-0.07347641
49.83333	-0.05775375
49.85	-0.05892563
49.86667	-0.07542954
49.88333	-0.08802719
49.9	-0.08441391
49.91667	-0.06898423
49.93333	-0.05521469
49.95	-0.05218735
49.96667	-0.05941391
49.98333	-0.0639061
50	-0.0569725
50.01667	-0.0482811
50.03333	-0.05306625
50.05	-0.0717186
50.06667	-0.0873436
50.08333	-0.08919907
50.1	-0.07962875
50.11667	-0.06566391
50.13333	-0.05550766
50.15	-0.05423813
50.16667	-0.06312485
50.18333	-0.07464828
50.2	-0.07621078
50.21667	-0.06937484
50.23333	-0.06595688
50.25	-0.07220688
50.26667	-0.08363266
50.28333	-0.09632798
50.3	-0.1021874
50.31667	-0.09564438
50.33333	-0.08373032
50.35	-0.07777329
50.36667	-0.07835922
50.38333	-0.07982407
50.4	-0.08031235
50.41667	-0.08304672
50.43333	-0.08675766
50.45	-0.08890609
50.46667	-0.08714829
50.48333	-0.08070298
50.5	-0.07347641
50.51667	-0.06839828
50.53333	-0.06566391
50.55	-0.06273422
50.56667	-0.0592186
50.58333	-0.06019516
50.6	-0.06917953
50.61667	-0.08041
50.63333	-0.08382797
50.65	-0.07992172
50.66667	-0.07826157
50.68333	-0.08724594
50.7	-0.09935532
50.71667	-0.1023827
50.73333	-0.09378891
50.75	-0.08246078
50.76667	-0.07699203
50.78333	-0.07689438
50.8	-0.07972641
50.81667	-0.08294906
50.83333	-0.08451156
50.85	-0.08685531
50.86667	-0.09056626
50.88333	-0.08851548
50.9	-0.08177719
50.91667	-0.08207016
50.93333	-0.0935936
50.95	-0.1048241
50.96667	-0.1045311
50.98333	-0.09173813
51	-0.0764061
51.01667	-0.06947251
51.03333	-0.0725975
51.05	-0.07923813
51.06667	-0.08529282
51.08333	-0.08783188
51.1	-0.08343735
51.11667	-0.07533188
51.13333	-0.07249985
51.15	-0.07591782
51.16667	-0.07650375
51.18333	-0.06888656
51.2	-0.05912094
51.21667	-0.05785141
51.23333	-0.06546859
51.25	-0.07337876
51.26667	-0.0685936
51.28333	-0.05394516
51.3	-0.04271469
51.31667	-0.04271469
51.33333	-0.052285
51.35	-0.06185532
51.36667	-0.06683578
51.38333	-0.06771469
51.4	-0.07044907
51.41667	-0.07611313
51.43333	-0.08324204
51.45	-0.08568344
51.46667	-0.07894516
51.48333	-0.06839828
51.5	-0.06439438
51.51667	-0.07083969
51.53333	-0.07777329
51.55	-0.07621078
51.56667	-0.07025375
51.58333	-0.07083969
51.6	-0.07874985
51.61667	-0.08626938
51.63333	-0.08792953
51.65	-0.08626938
51.66667	-0.0826561
51.68333	-0.0748436
51.7	-0.06322251
51.71667	-0.0560936
51.73333	-0.05511703
51.75	-0.05599594
51.76667	-0.05443344
51.78333	-0.05033188
51.8	-0.04535141
51.81667	-0.04330063
51.83333	-0.04398422
51.85	-0.046035
51.86667	-0.04974594
51.88333	-0.05511703
51.9	-0.06068344
51.91667	-0.06292953
51.93333	-0.06419907
51.95	-0.06839828
51.96667	-0.07513656
51.98333	-0.07972641
52	-0.07845688
52.01667	-0.07298813
52.03333	-0.06800766
52.05	-0.07113266
52.06667	-0.07845688
52.08333	-0.08255844
52.1	-0.08011703
52.11667	-0.07660141
52.13333	-0.07699203
52.15	-0.07845688
52.16667	-0.07650375
52.18333	-0.07074203
52.2	-0.06566391
52.21667	-0.06624985
52.23333	-0.07064438
52.25	-0.07210922
52.26667	-0.0670311
52.28333	-0.06166
52.3	-0.06371079
52.31667	-0.07435532
52.33333	-0.08294906
52.35	-0.08275376
52.36667	-0.07777329
52.38333	-0.07699203
52.4	-0.07972641
52.41667	-0.08050766
52.43333	-0.07933579
52.45	-0.07992172
52.46667	-0.08138657
52.48333	-0.07894516
52.5	-0.07562485
52.51667	-0.07347641
52.53333	-0.06917953
52.55	-0.06136703
52.56667	-0.05541001
52.58333	-0.05277329
52.6	-0.05277329
52.61667	-0.05746078
52.63333	-0.06878891
52.65	-0.07806625
52.66667	-0.07474594
52.68333	-0.06136703
52.7	-0.04847641
52.71667	-0.03978501
52.73333	-0.03646469
52.75	-0.0404686
52.76667	-0.04798813
52.78333	-0.05541001
52.8	-0.06332016
52.81667	-0.07464828
52.83333	-0.08216782
52.85	-0.08089828
52.86667	-0.07123031
52.88333	-0.05824203
52.9	-0.04632797
52.91667	-0.03666
52.93333	-0.03392563
52.95	-0.0420311
52.96667	-0.05775375
52.98333	-0.07337876
53	-0.08343735
53.01667	-0.08744125
53.03333	-0.08656235
53.05	-0.08656235
53.06667	-0.08929672
53.08333	-0.08773422
53.1	-0.07708969
53.11667	-0.06615219
53.13333	-0.06527328
53.15	-0.06908188
53.16667	-0.07035141
53.18333	-0.06986313
53.2	-0.06986313
53.21667	-0.06966782
53.23333	-0.07181625
53.25	-0.07630844
53.26667	-0.07601547
53.28333	-0.0670311
53.3	-0.05833969
53.31667	-0.05628891
53.33333	-0.05804672
53.35	-0.05931626
53.36667	-0.05902328
53.38333	-0.05980454
53.4	-0.06263657
53.41667	-0.064785
53.43333	-0.06673813
53.45	-0.07044907
53.46667	-0.07308578
53.48333	-0.07249985
53.5	-0.06771469
53.51667	-0.06146469
53.53333	-0.05628891
53.55	-0.05531235
53.56667	-0.05687485
53.58333	-0.05726547
53.6	-0.05687485
53.61667	-0.06107407
53.63333	-0.0663475
53.65	-0.06546859
53.66667	-0.05492172
53.68333	-0.0444725
53.7	-0.04535141
53.71667	-0.05687485
53.73333	-0.0663475
53.75	-0.06468735
53.76667	-0.05628891
53.78333	-0.0514061
53.8	-0.05716782
53.81667	-0.07210922
53.83333	-0.08392563
53.85	-0.08041
53.86667	-0.06117172
53.88333	-0.04144516
53.9	-0.03490219
53.91667	-0.04007797
53.93333	-0.04740219
53.95	-0.05091782
53.96667	-0.05326157
53.98333	-0.05746078
54	-0.06058579
54.01667	-0.05755844
54.03333	-0.05326157
54.05	-0.05501938
54.06667	-0.06068344
54.08333	-0.06380844
54.1	-0.06341781
54.11667	-0.06693344
54.13333	-0.07279281
54.15	-0.07220688
54.16667	-0.06410141
54.18333	-0.05746078
54.2	-0.05619125
54.21667	-0.05687485
54.23333	-0.05541001
54.25	-0.05033188
54.26667	-0.04291
54.28333	-0.03568344
54.3	-0.03187485
54.31667	-0.03294907
54.33333	-0.03744125
54.35	-0.04173813
54.36667	-0.04369126
54.38333	-0.04574203
54.4	-0.04955063
54.41667	-0.05150376
54.43333	-0.04994125
54.45	-0.04779281
54.46667	-0.04857407
54.48333	-0.05306625
54.5	-0.06156235
54.51667	-0.07308578
54.53333	-0.08138657
54.55	-0.08460923
54.56667	-0.08529282
54.58333	-0.083535
54.6	-0.07855453
54.61667	-0.07298813
54.63333	-0.06996079
54.65	-0.06830063
54.66667	-0.06107407
54.68333	-0.04935532
54.7	-0.04183578
54.71667	-0.04398422
54.73333	-0.04935532
54.75	-0.05013657
54.76667	-0.05003891
54.78333	-0.05814438
54.8	-0.07054672
54.81667	-0.07357407
54.83333	-0.06400375
54.85	-0.05374985
54.86667	-0.05335922
54.88333	-0.06175766
54.9	-0.06664047
54.91667	-0.06087875
54.93333	-0.05121078
54.95	-0.04701157
54.96667	-0.04789047
54.98333	-0.04916
55	-0.04847641
