"SampleName"	"9. PC-12 Atp2b2 shRNA C"
"System Name"	"Alliance 2"
"Sample Set Name"	"DTtV_15052025 GSL new HPLC"
"Date Acquired"	"5/15/2025 10:18:57 PM BST"
"Sample Set Start Date"	"5/15/2025 2:04:31 PM BST"
0	0.0002456665
0.01666667	0.0003662109
0.03333333	0.0005332947
0.05	0.003755951
0.06666667	0.01332626
0.08333333	0.02934189
0.1	0.04613876
0.1166667	0.05961533
0.1333333	0.07221298
0.15	0.08305283
0.1666667	0.09164657
0.1833333	0.09701767
0.2	0.09457626
0.2166667	0.08461533
0.2333333	0.07690048
0.25	0.08373642
0.2666667	0.100338
0.2833333	0.1142052
0.3	0.1207481
0.3166667	0.1212364
0.3333333	0.1126427
0.35	0.09887314
0.3666667	0.09096298
0.3833333	0.09008408
0.4	0.08822861
0.4166667	0.08705673
0.4333333	0.09369735
0.45	0.1017052
0.4666667	0.09877548
0.4833333	0.08764267
0.5	0.08295517
0.5166667	0.08676376
0.5333333	0.08432236
0.55	0.06469345
0.5666667	0.04106064
0.5833333	0.03080673
0.6	0.03656845
0.6166667	0.04945908
0.6333333	0.05942001
0.65	0.06176376
0.6666667	0.0560997
0.6833333	0.0482872
0.7	0.04379501
0.7166667	0.04272079
0.7333333	0.04320908
0.75	0.0458458
0.7666667	0.05053329
0.7833333	0.05561142
0.8	0.05600204
0.8166667	0.04867782
0.8333333	0.04135361
0.85	0.04457626
0.8666667	0.05746689
0.8833333	0.06723251
0.9	0.06645127
0.9166667	0.06322861
0.9333333	0.06723251
0.95	0.06908798
0.9666667	0.05629501
0.9833333	0.03588486
1	0.02318954
1.016667	0.02611923
1.033333	0.03236923
1.05	0.03715439
1.066667	0.04389267
1.083333	0.04838486
1.1	0.0451622
1.116667	0.03500595
1.133333	0.02221298
1.15	0.01088486
1.166667	0.003365326
1.183333	0.003170013
1.2	0.009420013
1.216667	0.01693955
1.233333	0.0224083
1.25	0.02719345
1.266667	0.0295372
1.283333	0.0224083
1.3	0.008345795
1.316667	0.0004356384
1.333333	0.007857514
1.35	0.02143173
1.366667	0.03197861
1.383333	0.03969345
1.4	0.0435997
1.416667	0.03676376
1.433333	0.02318954
1.45	0.01420517
1.466667	0.01361923
1.483333	0.01772079
1.5	0.02631455
1.516667	0.03442001
1.533333	0.03647079
1.55	0.03373642
1.566667	0.03227158
1.583333	0.03354111
1.6	0.03568954
1.616667	0.03637314
1.633333	0.03666611
1.65	0.0420372
1.666667	0.05785751
1.683333	0.08354111
1.7	0.1131309
1.716667	0.143502
1.733333	0.175338
1.75	0.210006
1.766667	0.2394981
1.783333	0.2540489
1.8	0.2492638
1.816667	0.2302208
1.833333	0.2059044
1.85	0.1809044
1.866667	0.1588341
1.883333	0.137252
1.9	0.116256
1.916667	0.09848251
1.933333	0.09242783
1.95	0.09447861
1.966667	0.09477158
1.983333	0.0857872
2	0.06986924
2.016667	0.05121689
2.033333	0.03627548
2.05	0.03393173
2.066667	0.04262314
2.083333	0.04711533
2.1	0.03705673
2.116667	0.01986923
2.133333	0.00717392
2.15	0.0001426697
2.166667	-0.003958893
2.183333	-0.006790924
2.2	-0.01079483
2.216667	-0.01636124
2.233333	-0.02085342
2.25	-0.02544327
2.266667	-0.03218155
2.283333	-0.04067764
2.3	-0.04956436
2.316667	-0.05688858
2.333333	-0.06333389
2.35	-0.07007217
2.366667	-0.07778702
2.383333	-0.08315811
2.4	-0.08735733
2.416667	-0.09565811
2.433333	-0.1072792
2.45	-0.1185097
2.466667	-0.1342323
2.483333	-0.1515175
2.5	-0.1612831
2.516667	-0.1619667
2.533333	-0.1642128
2.55	-0.1764198
2.566667	-0.190873
2.583333	-0.193412
2.6	-0.1818886
2.616667	-0.1648964
2.633333	-0.1476112
2.65	-0.12808
2.666667	-0.1067909
2.683333	-0.07622452
2.7	-0.02104874
2.716667	0.0663536
2.733333	0.1800255
2.75	0.3090294
2.766667	0.4487755
2.783333	0.5993614
2.8	0.7623497
2.816667	0.9494591
2.833333	1.172994
2.85	1.431783
2.866667	1.711275
2.883333	2.000533
2.9	2.298873
2.916667	2.605709
2.933333	2.919283
2.95	3.241842
2.966667	3.577975
2.983333	3.916939
3	4.237252
3.016667	4.523678
3.033333	4.773776
3.05	4.99692
3.066667	5.207955
3.083333	5.422213
3.1	5.638424
3.116667	5.838912
3.133333	6.007076
3.15	6.141549
3.166667	6.249654
3.183333	6.339596
3.2	6.417233
3.216667	6.506002
3.233333	6.654733
3.25	6.932467
3.266667	7.433444
3.283333	8.326218
3.3	9.890965
3.316667	12.40356
3.333333	15.88677
3.35	19.94809
3.366667	23.90522
3.383333	27.10835
3.4	29.1935
3.416667	30.18217
3.433333	30.71801
3.45	33.27592
3.466667	44.923
3.483333	79.50571
3.5	153.817
3.516667	276.2719
3.533333	437.589
3.55	614.7706
3.566667	784.8165
3.583333	932.9467
3.6	1049.385
3.616667	1123.762
3.633333	1146.428
3.65	1114.908
3.666667	1037.813
3.683333	932.215
3.7	816.8087
3.716667	706.0613
3.733333	608.08
3.75	525.5975
3.766667	458.4149
3.783333	405.629
3.8	366.6161
3.816667	340.7637
3.833333	326.7297
3.85	321.6628
3.866667	320.4848
3.883333	316.3942
3.9	303.7071
3.916667	280.4254
3.933333	247.2801
3.95	206.017
3.966667	160.5887
3.983333	117.9076
4	84.25688
4.016667	61.24028
4.033333	46.51264
4.05	37.08579
4.066667	30.87963
4.083333	26.5771
4.1	23.33852
4.116667	20.71889
4.133333	18.56069
4.15	16.82134
4.166667	15.46948
4.183333	14.46294
4.2	13.73882
4.216667	13.21968
4.233333	12.83296
4.25	12.53442
4.266667	12.29858
4.283333	12.10259
4.3	11.93442
4.316667	11.81157
4.333333	11.77641
4.35	11.86802
4.366667	12.09888
4.383333	12.45874
4.4	12.91548
4.416667	13.40874
4.433333	13.85493
4.45	14.15434
4.466667	14.21597
4.483333	13.98755
4.5	13.49741
4.516667	12.83618
4.533333	12.09888
4.55	11.33686
4.566667	10.57065
4.583333	9.817625
4.6	9.095163
4.616667	8.41987
4.633333	7.817917
4.65	7.329538
4.666667	6.99526
4.683333	6.843698
4.7	6.878268
4.716667	7.060689
4.733333	7.297897
4.75	7.481491
4.766667	7.547995
4.783333	7.497018
4.8	7.369382
4.816667	7.21196
4.833333	7.059908
4.85	6.927682
4.866667	6.807369
4.883333	6.684127
4.9	6.55942
4.916667	6.458736
4.933333	6.418795
4.95	6.467233
4.966667	6.595455
4.983333	6.750338
5	6.861666
5.016667	6.888619
5.033333	6.839205
5.05	6.743307
5.066667	6.633248
5.083333	6.53735
5.1	6.474557
5.116667	6.444186
5.133333	6.429928
5.15	6.41274
5.166667	6.371236
5.183333	6.286861
5.2	6.145358
5.216667	5.946529
5.233333	5.710201
5.25	5.463912
5.266667	5.232076
5.283333	5.025143
5.3	4.842623
5.316667	4.677584
5.333333	4.522408
5.35	4.371432
5.366667	4.221139
5.383333	4.077291
5.4	3.961471
5.416667	3.902194
5.433333	3.9061
5.45	3.957369
5.466667	4.025533
5.483333	4.083444
5.5	4.113522
5.516667	4.104733
5.533333	4.070846
5.55	4.050338
5.566667	4.098971
5.583333	4.256002
5.6	4.530416
5.616667	4.898971
5.633333	5.300045
5.65	5.640377
5.666667	5.83608
5.683333	5.860396
5.7	5.752096
5.716667	5.580221
5.733333	5.407271
5.75	5.274166
5.766667	5.199264
5.783333	5.179342
5.8	5.196627
5.816667	5.23315
5.833333	5.273776
5.85	5.307076
5.866667	5.326217
5.883333	5.326705
5.9	5.306588
5.916667	5.261178
5.933333	5.184322
5.95	5.074264
5.966667	4.92944
5.983333	4.748678
6	4.536471
6.016667	4.304928
6.033333	4.068502
6.05	3.836764
6.066667	3.621725
6.083333	3.434225
6.1	3.282662
6.116667	3.160201
6.133333	3.055807
6.15	2.967623
6.166667	2.899068
6.183333	2.853658
6.2	2.823678
6.216667	2.795064
6.233333	2.754733
6.25	2.700729
6.266667	2.637545
6.283333	2.569967
6.3	2.499459
6.316667	2.430416
6.333333	2.369088
6.35	2.3186
6.366667	2.272994
6.383333	2.227486
6.4	2.187252
6.416667	2.159713
6.433333	2.142721
6.45	2.129733
6.466667	2.115084
6.483333	2.102584
6.5	2.097213
6.516667	2.103072
6.533333	2.122994
6.55	2.150826
6.566667	2.17319
6.583333	2.182858
6.6	2.184811
6.616667	2.181881
6.633333	2.171237
6.65	2.144576
6.666667	2.103658
6.683333	2.055416
6.7	2.0061
6.716667	1.950729
6.733333	1.889205
6.75	1.8311
6.766667	1.780025
6.783333	1.727682
6.8	1.670943
6.816667	1.624557
6.833333	1.601998
6.85	1.60317
6.866667	1.623775
6.883333	1.660787
6.9	1.714205
6.916667	1.782565
6.933333	1.862838
6.95	1.947897
6.966667	2.025631
6.983333	2.083053
7	2.113522
7.016667	2.115572
7.033333	2.09565
7.05	2.06108
7.066667	2.017916
7.083333	1.97358
7.1	1.932272
7.116667	1.889498
7.133333	1.841158
7.15	1.793795
7.166667	1.7561
7.183333	1.73149
7.2	1.718697
7.216667	1.71274
7.233333	1.705807
7.25	1.69233
7.266667	1.673092
7.283333	1.653658
7.3	1.636373
7.316667	1.625143
7.333333	1.629928
7.35	1.671139
7.366667	1.76567
7.383333	1.909811
7.4	2.090084
7.416667	2.292135
7.433333	2.496139
7.45	2.669088
7.466667	2.779537
7.483333	2.812057
7.5	2.771432
7.516667	2.673482
7.533333	2.537838
7.55	2.379049
7.566667	2.211471
7.583333	2.049264
7.6	1.901803
7.616667	1.771822
7.633333	1.664108
7.65	1.579733
7.666667	1.514596
7.683333	1.46274
7.7	1.42319
7.716667	1.395553
7.733333	1.375533
7.75	1.354537
7.766667	1.335299
7.783333	1.328463
7.8	1.338717
7.816667	1.355514
7.833333	1.367721
7.85	1.372115
7.866667	1.372115
7.883333	1.368014
7.9	1.360494
7.916667	1.355416
7.933333	1.359518
7.95	1.370651
7.966667	1.383736
7.983333	1.397018
8	1.409713
8.016667	1.417526
8.033333	1.420357
8.05	1.425045
8.066667	1.440768
8.083333	1.468111
8.1	1.499752
8.116667	1.528756
8.133333	1.560885
8.15	1.605611
8.166667	1.666256
8.183333	1.742233
8.2	1.835787
8.216667	1.947018
8.233333	2.075826
8.25	2.225729
8.266667	2.399752
8.283333	2.589401
8.3	2.770455
8.316667	2.91567
8.333333	3.004928
8.35	3.035397
8.366667	3.013522
8.383333	2.944479
8.4	2.829147
8.416667	2.673482
8.433333	2.49399
8.45	2.31567
8.466667	2.154244
8.483333	2.004244
8.5	1.857467
8.516667	1.72358
8.533333	1.614791
8.55	1.52817
8.566667	1.453854
8.583333	1.39194
8.6	1.344772
8.616667	1.310201
8.633333	1.282174
8.65	1.255904
8.666667	1.228951
8.683333	1.203268
8.7	1.178756
8.716667	1.157858
8.733333	1.14233
8.75	1.135689
8.766667	1.130221
8.783333	1.122018
8.8	1.116549
8.816667	1.119186
8.833333	1.122506
8.85	1.117525
8.866667	1.10942
8.883333	1.114107
8.9	1.133932
8.916667	1.156295
8.933333	1.175045
8.95	1.202975
8.966667	1.246627
8.983333	1.296334
9	1.34565
9.016667	1.404342
9.033333	1.484811
9.05	1.589108
9.066667	1.712545
9.083333	1.848971
9.1	1.994967
9.116667	2.151608
9.133333	2.317525
9.15	2.483932
9.166667	2.631197
9.183333	2.737936
9.2	2.790865
9.216667	2.793111
9.233333	2.75151
9.25	2.6686
9.266667	2.551412
9.283333	2.414986
9.3	2.271627
9.316667	2.122799
9.333333	1.972897
9.35	1.831002
9.366667	1.703463
9.383333	1.590084
9.4	1.486861
9.416667	1.387252
9.433333	1.288912
9.45	1.196236
9.466667	1.1186
9.483333	1.061178
9.5	1.015865
9.516667	0.9708458
9.533333	0.9213341
9.55	0.875631
9.566667	0.8432091
9.583333	0.8242638
9.6	0.8105919
9.616667	0.8020958
9.633333	0.7980919
9.65	0.7987755
9.666667	0.8046349
9.683333	0.812252
9.7	0.8182091
9.716667	0.8262169
9.733333	0.8466271
9.75	0.8825645
9.766667	0.9275841
9.783333	0.9788536
9.8	1.03149
9.816667	1.076412
9.833333	1.110494
9.85	1.145943
9.866667	1.187057
9.883333	1.226412
9.9	1.257467
9.916667	1.276901
9.933333	1.283443
9.95	1.272311
9.966667	1.242428
9.983333	1.188912
10	1.112936
10.01667	1.026608
10.03333	0.9445763
10.05	0.8706505
10.06667	0.8027794
10.08333	0.7410606
10.1	0.6894005
10.11667	0.6478966
10.13333	0.6129357
10.15	0.5849083
10.16667	0.5651817
10.18333	0.5486778
10.2	0.5276817
10.21667	0.5052208
10.23333	0.4905724
10.25	0.4778771
10.26667	0.4627403
10.28333	0.4527794
10.3	0.4599083
10.31667	0.4748497
10.33333	0.4776817
10.35	0.4674278
10.36667	0.4583458
10.38333	0.4557091
10.4	0.4504356
10.41667	0.4380333
10.43333	0.4322716
10.45	0.4391075
10.46667	0.4481896
10.48333	0.443502
10.5	0.4276817
10.51667	0.4108849
10.53333	0.3963341
10.55	0.3882286
10.56667	0.387252
10.58333	0.3929161
10.6	0.4040489
10.61667	0.4135216
10.63333	0.4139122
10.65	0.406002
10.66667	0.3976036
10.68333	0.3948692
10.7	0.3948692
10.71667	0.3968224
10.73333	0.4017052
10.75	0.4063927
10.76667	0.4096153
10.78333	0.4119591
10.8	0.4132286
10.81667	0.4086388
10.83333	0.3927208
10.85	0.3723106
10.86667	0.3571739
10.88333	0.3539513
10.9	0.356588
10.91667	0.356588
10.93333	0.353463
10.95	0.3553185
10.96667	0.365377
10.98333	0.3704552
11	0.3648888
11.01667	0.3563927
11.03333	0.3569786
11.05	0.3651817
11.06667	0.3739708
11.08333	0.3803185
11.1	0.3821739
11.11667	0.3770958
11.13333	0.3664513
11.15	0.3571739
11.16667	0.3573692
11.18333	0.3643028
11.2	0.3674278
11.21667	0.3642052
11.23333	0.3608848
11.25	0.3640099
11.26667	0.3727989
11.28333	0.3795372
11.3	0.3795372
11.31667	0.3729942
11.33333	0.3642052
11.35	0.3563927
11.36667	0.3557091
11.38333	0.3645958
11.4	0.3764122
11.41667	0.3805138
11.43333	0.3744591
11.45	0.3698692
11.46667	0.3741661
11.48333	0.3832482
11.5	0.3917442
11.51667	0.3976036
11.53333	0.3994591
11.55	0.3978966
11.56667	0.3984825
11.58333	0.4041466
11.6	0.4118614
11.61667	0.4227013
11.63333	0.4332481
11.65	0.4401817
11.66667	0.4498497
11.68333	0.4695763
11.7	0.4962364
11.71667	0.5146934
11.73333	0.524752
11.75	0.5400841
11.76667	0.5680138
11.78333	0.6042442
11.8	0.6397911
11.81667	0.6718224
11.83333	0.70317
11.85	0.7346153
11.86667	0.7655724
11.88333	0.79692
11.9	0.831295
11.91667	0.8651817
11.93333	0.8887169
11.95	0.9002403
11.96667	0.9079552
11.98333	0.9191856
12	0.9291466
12.01667	0.9276817
12.03333	0.9118614
12.05	0.887252
12.06667	0.8680137
12.08333	0.8566856
12.1	0.8506309
12.11667	0.8393028
12.13333	0.8171349
12.15	0.7898887
12.16667	0.7640098
12.18333	0.7458458
12.2	0.7311974
12.21667	0.7200645
12.23333	0.7143028
12.25	0.7104942
12.26667	0.7004356
12.28333	0.6795372
12.3	0.6606895
12.31667	0.6551231
12.33333	0.6592247
12.35	0.6587364
12.36667	0.6467247
12.38333	0.634713
12.4	0.6307091
12.41667	0.6332482
12.43333	0.6387169
12.45	0.6468223
12.46667	0.6530724
12.48333	0.6488732
12.5	0.6369591
12.51667	0.6263145
12.53333	0.6226036
12.55	0.6239708
12.56667	0.6282676
12.58333	0.6355919
12.6	0.6435021
12.61667	0.6491661
12.63333	0.6519005
12.65	0.6527794
12.66667	0.6498497
12.68333	0.6404747
12.7	0.6285607
12.71667	0.618795
12.73333	0.6104943
12.75	0.6086388
12.76667	0.6164513
12.78333	0.6268028
12.8	0.6292442
12.81667	0.6236778
12.83333	0.6168419
12.85	0.6126426
12.86667	0.6117638
12.88333	0.6162559
12.9	0.6235802
12.91667	0.6270958
12.93333	0.6229942
12.95	0.6173302
12.96667	0.6202599
12.98333	0.6302208
13	0.6414512
13.01667	0.6530724
13.03333	0.6617638
13.05	0.6616661
13.06667	0.6545372
13.08333	0.650631
13.1	0.656881
13.11667	0.6637169
13.13333	0.669381
13.15	0.67817
13.16667	0.6927208
13.18333	0.7118614
13.2	0.7334434
13.21667	0.7545372
13.23333	0.7766075
13.25	0.803463
13.26667	0.8337364
13.28333	0.8612755
13.3	0.8891075
13.31667	0.9191856
13.33333	0.9435997
13.35	0.9557091
13.36667	0.9624473
13.38333	0.9724083
13.4	0.9862755
13.41667	0.997213
13.43333	0.9985802
13.45	0.9882286
13.46667	0.9717247
13.48333	0.9582481
13.5	0.9522911
13.51667	0.9546348
13.53333	0.963131
13.55	0.969381
13.56667	0.9651817
13.58333	0.9581505
13.6	0.9618614
13.61667	0.9811974
13.63333	1.003658
13.65	1.014889
13.66667	1.018307
13.68333	1.024752
13.7	1.035104
13.71667	1.042818
13.73333	1.047311
13.75	1.051901
13.76667	1.05317
13.78333	1.049166
13.8	1.042818
13.81667	1.037252
13.83333	1.02983
13.85	1.015572
13.86667	0.9925255
13.88333	0.9651817
13.9	0.9428185
13.91667	0.9294395
13.93333	0.9217247
13.95	0.9157677
13.96667	0.9131309
13.98333	0.9186974
14	0.9336388
14.01667	0.9539512
14.03333	0.9714317
14.05	0.9892052
14.06667	1.012545
14.08333	1.049459
14.1	1.101315
14.11667	1.164986
14.13333	1.237057
14.15	1.317037
14.16667	1.407955
14.18333	1.508736
14.2	1.614596
14.21667	1.720455
14.23333	1.82192
14.25	1.920553
14.26667	2.01899
14.28333	2.111373
14.3	2.181979
14.31667	2.220065
14.33333	2.230221
14.35	2.224361
14.36667	2.208639
14.38333	2.180416
14.4	2.133541
14.41667	2.067428
14.43333	1.990377
14.45	1.910885
14.46667	1.830514
14.48333	1.74985
14.5	1.674068
14.51667	1.609225
14.53333	1.550045
14.55	1.485592
14.56667	1.413033
14.58333	1.340963
14.6	1.277877
14.61667	1.223385
14.63333	1.172408
14.65	1.129049
14.66667	1.098776
14.68333	1.080025
14.7	1.063424
14.71667	1.044186
14.73333	1.01733
14.75	0.9845177
14.76667	0.949752
14.78333	0.9255333
14.8	0.9180138
14.81667	0.9196739
14.83333	0.9194786
14.85	0.9148887
14.86667	0.9124473
14.88333	0.9137169
14.9	0.9144005
14.91667	0.9100059
14.93333	0.9056114
14.95	0.9071739
14.96667	0.9122521
14.98333	0.9152794
15	0.9157677
15.01667	0.9149864
15.03333	0.9116661
15.05	0.9046348
15.06667	0.89692
15.08333	0.8953575
15.1	0.9005333
15.11667	0.9053184
15.13333	0.9012169
15.15	0.8898888
15.16667	0.881295
15.18333	0.8826622
15.2	0.8945763
15.21667	0.9093224
15.23333	0.9134239
15.25	0.9026817
15.26667	0.8890098
15.28333	0.888131
15.3	0.899752
15.31667	0.9101036
15.33333	0.9126427
15.35	0.9115685
15.36667	0.9050255
15.38333	0.8908653
15.4	0.8773888
15.41667	0.8764122
15.43333	0.8874474
15.45	0.8994591
15.46667	0.9047325
15.48333	0.9052208
15.5	0.903463
15.51667	0.8970177
15.53333	0.890963
15.55	0.8865684
15.56667	0.8823692
15.58333	0.8782676
15.6	0.8790489
15.61667	0.8857872
15.63333	0.8916466
15.65	0.8949669
15.66667	0.900045
15.68333	0.9077598
15.7	0.9122521
15.71667	0.9143028
15.73333	0.9182091
15.75	0.9269981
15.76667	0.9386193
15.78333	0.9520958
15.8	0.9670372
15.81667	0.9801232
15.83333	0.9872521
15.85	0.9872521
15.86667	0.9859825
15.88333	0.9894005
15.9	0.993502
15.91667	0.9927208
15.93333	0.9865685
15.95	0.9814903
15.96667	0.9848107
15.98333	0.9945763
16	1.005026
16.01667	1.011568
16.03333	1.015182
16.05	1.018795
16.06667	1.022897
16.08333	1.027877
16.1	1.031979
16.11667	1.036861
16.13333	1.042623
16.15	1.050143
16.16667	1.063522
16.18333	1.082369
16.2	1.103658
16.21667	1.127584
16.23333	1.158346
16.25	1.202584
16.26667	1.258834
16.28333	1.32192
16.3	1.393697
16.31667	1.479439
16.33333	1.577486
16.35	1.678658
16.36667	1.777877
16.38333	1.877486
16.4	1.980123
16.41667	2.086861
16.43333	2.200045
16.45	2.321529
16.46667	2.452291
16.48333	2.601803
16.5	2.789498
16.51667	3.034908
16.53333	3.351901
16.55	3.751315
16.56667	4.255319
16.58333	4.893209
16.6	5.684713
16.61667	6.632857
16.63333	7.726511
16.65	8.955709
16.66667	10.30718
16.68333	11.74692
16.7	13.2143
16.71667	14.6395
16.73333	15.96333
16.75	17.13559
16.76667	18.1022
16.78333	18.8144
16.8	19.24429
16.81667	19.39399
16.83333	19.2855
16.85	18.94936
16.86667	18.42261
16.88333	17.74643
16.9	16.96977
16.91667	16.14223
16.93333	15.3062
16.95	14.49419
16.96667	13.72563
16.98333	13.00727
17	12.3353
17.01667	11.70747
17.03333	11.123
17.05	10.5771
17.06667	10.05776
17.08333	9.544969
17.1	9.022995
17.11667	8.489304
17.13333	7.951901
17.15	7.418698
17.16667	6.894283
17.18333	6.382857
17.2	5.889596
17.21667	5.421432
17.23333	4.984323
17.25	4.577584
17.26667	4.199752
17.28333	3.850045
17.3	3.532272
17.31667	3.245553
17.33333	2.991549
17.35	2.774166
17.36667	2.587545
17.38333	2.419967
17.4	2.262545
17.41667	2.116256
17.43333	1.986861
17.45	1.878365
17.46667	1.794088
17.48333	1.731002
17.5	1.678658
17.51667	1.626998
17.53333	1.572018
17.55	1.517525
17.56667	1.466158
17.58333	1.420943
17.6	1.385104
17.61667	1.363912
17.63333	1.354049
17.65	1.349557
17.66667	1.347018
17.68333	1.348873
17.7	1.354733
17.71667	1.360201
17.73333	1.365279
17.75	1.377584
17.76667	1.404244
17.78333	1.447408
17.8	1.499459
17.81667	1.552779
17.83333	1.608639
17.85	1.676803
17.86667	1.756979
17.88333	1.841549
17.9	1.928365
17.91667	2.01899
17.93333	2.108541
17.95	2.187838
17.96667	2.24985
17.98333	2.292526
18	2.316354
18.01667	2.322213
18.03333	2.30444
18.05	2.270358
18.06667	2.234811
18.08333	2.204342
18.1	2.166256
18.11667	2.11108
18.13333	2.043697
18.15	1.973776
18.16667	1.907662
18.18333	1.851119
18.2	1.801412
18.21667	1.750631
18.23333	1.698678
18.25	1.652291
18.26667	1.617233
18.28333	1.592232
18.3	1.573678
18.31667	1.55444
18.33333	1.532272
18.35	1.511178
18.36667	1.495943
18.38333	1.482955
18.4	1.470943
18.41667	1.465279
18.43333	1.468893
18.45	1.474166
18.46667	1.466256
18.48333	1.443209
18.5	1.420943
18.51667	1.412154
18.53333	1.410885
18.55	1.406295
18.56667	1.399264
18.58333	1.397408
18.6	1.401119
18.61667	1.405318
18.63333	1.405514
18.65	1.39819
18.66667	1.385494
18.68333	1.375533
18.7	1.374654
18.71667	1.380611
18.73333	1.384225
18.75	1.381393
18.76667	1.376608
18.78333	1.373287
18.8	1.3686
18.81667	1.361568
18.83333	1.358443
18.85	1.361568
18.86667	1.364205
18.88333	1.36401
18.9	1.361764
18.91667	1.358541
18.93333	1.359518
18.95	1.364498
18.96667	1.369283
18.98333	1.371529
19	1.375631
19.01667	1.385689
19.03333	1.398092
19.05	1.40815
19.06667	1.411276
19.08333	1.40649
19.1	1.394479
19.11667	1.385983
19.13333	1.387447
19.15	1.394186
19.16667	1.399654
19.18333	1.403658
19.2	1.406686
19.21667	1.409029
19.23333	1.409713
19.25	1.408932
19.26667	1.40942
19.28333	1.413424
19.3	1.416354
19.31667	1.414693
19.33333	1.410299
19.35	1.408639
19.36667	1.410787
19.38333	1.412545
19.4	1.41235
19.41667	1.411568
19.43333	1.410982
19.45	1.413522
19.46667	1.423775
19.48333	1.441158
19.5	1.46069
19.51667	1.476217
19.53333	1.488424
19.55	1.5019
19.56667	1.521139
19.58333	1.544381
19.6	1.56899
19.61667	1.593307
19.63333	1.620064
19.65	1.650924
19.66667	1.683151
19.68333	1.708639
19.7	1.720748
19.71667	1.726119
19.73333	1.73276
19.75	1.74399
19.76667	1.754147
19.78333	1.756979
19.8	1.748873
19.81667	1.735397
19.83333	1.724459
19.85	1.716158
19.86667	1.71108
19.88333	1.711666
19.9	1.717818
19.91667	1.721725
19.93333	1.718307
19.95	1.712447
19.96667	1.713717
19.98333	1.723776
20	1.73735
20.01667	1.747701
20.03333	1.756002
20.05	1.762057
20.06667	1.763229
20.08333	1.759225
20.1	1.753854
20.11667	1.749752
20.13333	1.74692
20.15	1.742916
20.16667	1.737838
20.18333	1.73442
20.2	1.737447
20.21667	1.745064
20.23333	1.753854
20.25	1.759811
20.26667	1.760983
20.28333	1.760397
20.3	1.763619
20.31667	1.773775
20.33333	1.787545
20.35	1.800436
20.36667	1.817135
20.38333	1.841256
20.4	1.870064
20.41667	1.898483
20.43333	1.924166
20.45	1.94692
20.46667	1.966549
20.48333	1.986373
20.5	2.003561
20.51667	2.013619
20.53333	2.016744
20.55	2.014107
20.56667	2.007662
20.58333	1.999361
20.6	1.997994
20.61667	2.014205
20.63333	2.050533
20.65	2.102877
20.66667	2.170846
20.68333	2.257858
20.7	2.368502
20.71667	2.502193
20.73333	2.657076
20.75	2.827193
20.76667	3.011276
20.78333	3.208346
20.8	3.415865
20.81667	3.629147
20.83333	3.844869
20.85	4.048482
20.86667	4.216647
20.88333	4.336862
20.9	4.416842
20.91667	4.469088
20.93333	4.493014
20.95	4.480123
20.96667	4.430612
20.98333	4.353658
21	4.259908
21.01667	4.157955
21.03333	4.057076
21.05	3.971041
21.06667	3.91235
21.08333	3.883834
21.1	3.88276
21.11667	3.910104
21.13333	3.972311
21.15	4.063717
21.16667	4.164205
21.18333	4.262155
21.2	4.35942
21.21667	4.457955
21.23333	4.544967
21.25	4.606588
21.26667	4.64233
21.28333	4.662447
21.3	4.671237
21.31667	4.666451
21.33333	4.647604
21.35	4.619381
21.36667	4.588717
21.38333	4.56899
21.4	4.571432
21.41667	4.598775
21.43333	4.647017
21.45	4.713326
21.46667	4.7936
21.48333	4.877877
21.5	4.95942
21.51667	5.030221
21.53333	5.080611
21.55	5.102487
21.56667	5.094186
21.58333	5.055514
21.6	4.9894
21.61667	4.898971
21.63333	4.783834
21.65	4.643795
21.66667	4.48276
21.68333	4.312838
21.7	4.145064
21.71667	3.985397
21.73333	3.837447
21.75	3.700826
21.76667	3.57358
21.78333	3.450826
21.8	3.333053
21.81667	3.221822
21.83333	3.113717
21.85	3.00776
21.86667	2.910494
21.88333	2.827487
21.9	2.752291
21.91667	2.677291
21.93333	2.599166
21.95	2.5186
21.96667	2.438229
21.98333	2.364205
22	2.300631
22.01667	2.247994
22.03333	2.204049
22.05	2.163815
22.06667	2.120651
22.08333	2.077682
22.1	2.046334
22.11667	2.025045
22.13333	1.998971
22.15	1.965279
22.16667	1.942428
22.18333	1.937057
22.2	1.939889
22.21667	1.941647
22.23333	1.943307
22.25	1.949361
22.26667	1.961568
22.28333	1.978658
22.3	1.997604
22.31667	2.0144
22.33333	2.03149
22.35	2.046432
22.36667	2.057467
22.38333	2.063717
22.4	2.071627
22.41667	2.083053
22.43333	2.096627
22.45	2.10317
22.46667	2.098971
22.48333	2.091354
22.5	2.08608
22.51667	2.079049
22.53333	2.061373
22.55	2.03774
22.56667	2.015963
22.58333	2.005904
22.6	2.0061
22.61667	2.010494
22.63333	2.01401
22.65	2.013912
22.66667	2.009127
22.68333	1.999947
22.7	1.992135
22.71667	1.991549
22.73333	1.999166
22.75	2.01567
22.76667	2.046237
22.78333	2.094283
22.8	2.153756
22.81667	2.214889
22.83333	2.276217
22.85	2.345943
22.86667	2.428072
22.88333	2.519869
22.9	2.615084
22.91667	2.718502
22.93333	2.850631
22.95	3.03608
22.96667	3.291646
22.98333	3.621139
23	4.040963
23.01667	4.593404
23.03333	5.326022
23.05	6.272506
23.06667	7.448972
23.08333	8.870554
23.1	10.5521
23.11667	12.49468
23.13333	14.677
23.15	17.05708
23.16667	19.56831
23.18333	22.11802
23.2	24.59419
23.21667	26.89018
23.23333	28.91333
23.25	30.58481
23.26667	31.84126
23.28333	32.63774
23.3	32.95415
23.31667	32.80053
23.33333	32.21079
23.35	31.23091
23.36667	29.92055
23.38333	28.35864
23.4	26.62856
23.41667	24.79985
23.43333	22.92944
23.45	21.07553
23.46667	19.29126
23.48333	17.60678
23.5	16.02964
23.51667	14.56079
23.53333	13.20854
23.55	11.98423
23.56667	10.88315
23.58333	9.889011
23.6	8.986765
23.61667	8.177096
23.63333	7.46069
23.65	6.826412
23.66667	6.261178
23.68333	5.757174
23.7	5.309713
23.71667	4.914987
23.73333	4.575143
23.75	4.291646
23.76667	4.053463
23.78333	3.844576
23.8	3.661178
23.81667	3.508346
23.83333	3.392232
23.85	3.308639
23.86667	3.246529
23.88333	3.199752
23.9	3.169674
23.91667	3.156783
23.93333	3.150826
23.95	3.143893
23.96667	3.137838
23.98333	3.134518
24	3.133443
24.01667	3.140182
24.03333	3.155123
24.05	3.162057
24.06667	3.147408
24.08333	3.116549
24.1	3.082076
24.11667	3.052291
24.13333	3.031295
24.15	3.01733
24.16667	3.007662
24.18333	3.001607
24.2	3.006783
24.21667	3.027975
24.23333	3.054342
24.25	3.075729
24.26667	3.095943
24.28333	3.12983
24.3	3.179635
24.31667	3.238619
24.33333	3.297018
24.35	3.34858
24.36667	3.391158
24.38333	3.431393
24.4	3.472018
24.41667	3.507076
24.43333	3.530904
24.45	3.543893
24.46667	3.547799
24.48333	3.541842
24.5	3.527682
24.51667	3.508639
24.53333	3.491842
24.55	3.488033
24.56667	3.511178
24.58333	3.578268
24.6	3.71108
24.61667	3.938522
24.63333	4.286275
24.65	4.778365
24.66667	5.445943
24.68333	6.340182
24.7	7.518503
24.71667	9.022799
24.73333	10.87036
24.75	13.07133
24.76667	15.62544
24.78333	18.50083
24.8	21.63198
24.81667	24.94048
24.83333	28.33051
24.85	31.67544
24.86667	34.83979
24.88333	37.71206
24.9	40.19858
24.91667	42.19936
24.93333	43.61772
24.95	44.40356
24.96667	44.57261
24.98333	44.17583
25	43.26245
25.01667	41.88706
25.03333	40.13608
25.05	38.11479
25.06667	35.90766
25.08333	33.57612
25.1	31.18305
25.11667	28.79126
25.13333	26.45473
25.15	24.21499
25.16667	22.10366
25.18333	20.13403
25.2	18.30474
25.21667	16.61235
25.23333	15.05796
25.25	13.64038
25.26667	12.35356
25.28333	11.18843
25.3	10.13559
25.31667	9.184519
25.33333	8.325437
25.35	7.55278
25.36667	6.864791
25.38333	6.259518
25.4	5.738229
25.41667	5.294283
25.43333	4.912936
25.45	4.577975
25.46667	4.285885
25.48333	4.039303
25.5	3.835494
25.51667	3.666646
25.53333	3.529928
25.55	3.435201
25.56667	3.383346
25.58333	3.359127
25.6	3.350143
25.61667	3.366549
25.63333	3.419576
25.65	3.503951
25.66667	3.604049
25.68333	3.709225
25.7	3.815279
25.71667	3.921139
25.73333	4.029439
25.75	4.142526
25.76667	4.259225
25.78333	4.373971
25.8	4.477096
25.81667	4.565084
25.83333	4.646236
25.85	4.727389
25.86667	4.804244
25.88333	4.872603
25.9	4.940963
25.91667	5.015963
25.93333	5.0894
25.95	5.152877
25.96667	5.205221
25.98333	5.247506
26	5.276412
26.01667	5.288619
26.03333	5.283834
26.05	5.258639
26.06667	5.210006
26.08333	5.140573
26.1	5.057174
26.11667	4.961373
26.13333	4.850826
26.15	4.726705
26.16667	4.590768
26.18333	4.441842
26.2	4.283053
26.21667	4.125338
26.23333	3.975436
26.25	3.834225
26.26667	3.70317
26.28333	3.5811
26.3	3.462154
26.31667	3.344576
26.33333	3.239889
26.35	3.155123
26.36667	3.08442
26.38333	3.019381
26.4	2.962057
26.41667	2.920455
26.43333	2.899459
26.45	2.905904
26.46667	2.94399
26.48333	3.014889
26.5	3.117916
26.51667	3.263131
26.53333	3.460201
26.55	3.705025
26.56667	3.986764
26.58333	4.299752
26.6	4.643991
26.61667	5.0186
26.63333	5.416256
26.65	5.824947
26.66667	6.226607
26.68333	6.602389
26.7	6.934908
26.71667	7.205612
26.73333	7.408053
26.75	7.539792
26.76667	7.589303
26.78333	7.550046
26.8	7.437644
26.81667	7.273874
26.83333	7.068209
26.85	6.824166
26.86667	6.555612
26.88333	6.279049
26.9	5.997213
26.91667	5.707467
26.93333	5.415084
26.95	5.133834
26.96667	4.871334
26.98333	4.628561
27	4.408346
27.01667	4.212838
27.03333	4.034127
27.05	3.869967
27.06667	3.722018
27.08333	3.59067
27.1	3.476217
27.11667	3.379049
27.13333	3.295162
27.15	3.214889
27.16667	3.144869
27.18333	3.097897
27.2	3.078268
27.21667	3.084322
27.23333	3.122994
27.25	3.20649
27.26667	3.333346
27.28333	3.499752
27.3	3.721334
27.31667	4.022115
27.33333	4.412838
27.35	4.890768
27.36667	5.448385
27.38333	6.087057
27.4	6.807662
27.41667	7.601511
27.43333	8.44946
27.45	9.320749
27.46667	10.18989
27.48333	11.03384
27.5	11.82417
27.51667	12.52544
27.53333	13.10688
27.55	13.55278
27.56667	13.85493
27.58333	14.00835
27.6	14.01577
27.61667	13.88384
27.63333	13.61694
27.65	13.22456
27.66667	12.73071
27.68333	12.16743
27.7	11.56401
27.71667	10.93677
27.73333	10.29194
27.75	9.637644
27.76667	8.995749
27.78333	8.388815
27.8	7.821823
27.81667	7.292331
27.83333	6.806295
27.85	6.368697
27.86667	5.975142
27.88333	5.619674
27.9	5.300631
27.91667	5.012447
27.93333	4.749264
27.95	4.518209
27.96667	4.326608
27.98333	4.17192
28	4.038326
28.01667	3.912154
28.03333	3.792623
28.05	3.684518
28.06667	3.588033
28.08333	3.500143
28.1	3.425143
28.11667	3.364498
28.13333	3.312057
28.15	3.260299
28.16667	3.204928
28.18333	3.146334
28.2	3.089303
28.21667	3.040572
28.23333	3.004928
28.25	2.980123
28.26667	2.959908
28.28333	2.936275
28.3	2.91401
28.31667	2.903072
28.33333	2.903658
28.35	2.910592
28.36667	2.925533
28.38333	2.952487
28.4	2.984713
28.41667	3.013522
28.43333	3.043404
28.45	3.08149
28.46667	3.128854
28.48333	3.17651
28.5	3.223775
28.51667	3.284518
28.53333	3.371529
28.55	3.477584
28.56667	3.580904
28.58333	3.676803
28.6	3.779244
28.61667	3.899752
28.63333	4.034713
28.65	4.17192
28.66667	4.303951
28.68333	4.426608
28.7	4.538424
28.71667	4.633737
28.73333	4.706491
28.75	4.751119
28.76667	4.763424
28.78333	4.750436
28.8	4.725826
28.81667	4.696725
28.83333	4.652096
28.85	4.585397
28.86667	4.504635
28.88333	4.423385
28.9	4.347408
28.91667	4.271627
28.93333	4.193209
28.95	4.115279
28.96667	4.046823
28.98333	3.998385
29	3.969772
29.01667	3.955416
29.03333	3.949752
29.05	3.95444
29.06667	3.976803
29.08333	4.019869
29.1	4.081295
29.11667	4.158248
29.13333	4.252877
29.15	4.373775
29.16667	4.532369
29.18333	4.7394
29.2	5.000631
29.21667	5.317135
29.23333	5.684811
29.25	6.103072
29.26667	6.573092
29.28333	7.09028
29.3	7.645065
29.31667	8.217331
29.33333	8.782077
29.35	9.312742
29.36667	9.788914
29.38333	10.19419
29.4	10.50981
29.41667	10.71401
29.43333	10.79643
29.45	10.7603
29.46667	10.62114
29.48333	10.39136
29.5	10.08423
29.51667	9.715769
29.53333	9.301512
29.55	8.854635
29.56667	8.385592
29.58333	7.906686
29.6	7.431003
29.61667	6.976803
29.63333	6.561471
29.65	6.185885
29.66667	5.837545
29.68333	5.50942
29.7	5.204342
29.71667	4.924068
29.73333	4.669478
29.75	4.443795
29.76667	4.250338
29.78333	4.08315
29.8	3.930904
29.81667	3.787643
29.83333	3.657272
29.85	3.547506
29.86667	3.460299
29.88333	3.38901
29.9	3.324752
29.91667	3.269186
29.93333	3.229928
29.95	3.208639
29.96667	3.196822
29.98333	3.190182
30	3.194283
30.01667	3.209322
30.03333	3.240475
30.05	3.294381
30.06667	3.36733
30.08333	3.449069
30.1	3.53774
30.11667	3.638522
30.13333	3.754733
30.15	3.884127
30.16667	4.025533
30.18333	4.182565
30.2	4.355514
30.21667	4.546627
30.23333	4.766646
30.25	5.034811
30.26667	5.370162
30.28333	5.790865
30.3	6.322896
30.31667	6.99194
30.33333	7.816843
30.35	8.806882
30.36667	9.969969
30.38333	11.30385
30.4	12.79565
30.41667	14.41665
30.43333	16.11479
30.45	17.82475
30.46667	19.48462
30.48333	21.03833
30.5	22.42612
30.51667	23.5852
30.53333	24.46675
30.55	25.03667
30.56667	25.28393
30.58333	25.22075
30.6	24.8644
30.61667	24.23735
30.63333	23.37847
30.65	22.34438
30.66667	21.18647
30.68333	19.9437
30.7	18.65102
30.71667	17.34936
30.73333	16.07397
30.75	14.84868
30.76667	13.68862
30.78333	12.60757
30.8	11.61274
30.81667	10.69858
30.83333	9.857176
30.85	9.086374
30.86667	8.386179
30.88333	7.756882
30.9	7.196335
30.91667	6.699655
30.93333	6.258541
30.95	5.86235
30.96667	5.510006
30.98333	5.2019
31	4.93608
31.01667	4.706393
31.03333	4.505904
31.05	4.332858
31.06667	4.183053
31.08333	4.052096
31.1	3.934811
31.11667	3.829244
31.13333	3.735397
31.15	3.655514
31.16667	3.587545
31.18333	3.530221
31.2	3.486666
31.21667	3.459811
31.23333	3.445358
31.25	3.4311
31.26667	3.414303
31.28333	3.399557
31.3	3.3936
31.31667	3.397408
31.33333	3.409615
31.35	3.427682
31.36667	3.452487
31.38333	3.476901
31.4	3.498385
31.41667	3.513522
31.43333	3.520943
31.45	3.520553
31.46667	3.516158
31.48333	3.510983
31.5	3.508541
31.51667	3.505514
31.53333	3.492721
31.55	3.468307
31.56667	3.444869
31.58333	3.432662
31.6	3.423482
31.61667	3.403561
31.63333	3.375338
31.65	3.347213
31.66667	3.321041
31.68333	3.293893
31.7	3.269967
31.71667	3.25317
31.73333	3.238033
31.75	3.218404
31.76667	3.198873
31.78333	3.181002
31.8	3.164986
31.81667	3.146627
31.83333	3.128658
31.85	3.112545
31.86667	3.100338
31.88333	3.097506
31.9	3.102682
31.91667	3.109029
31.93333	3.108443
31.95	3.103854
31.96667	3.105416
31.98333	3.114596
32	3.124166
32.01667	3.133346
32.03333	3.147799
32.05	3.17026
32.06667	3.200533
32.08333	3.241158
32.1	3.294576
32.11667	3.361178
32.13333	3.437545
32.15	3.51108
32.16667	3.567525
32.18333	3.606295
32.2	3.64399
32.21667	3.689693
32.23333	3.731881
32.25	3.753951
32.26667	3.757955
32.28333	3.759615
32.3	3.766744
32.31667	3.769674
32.33333	3.755318
32.35	3.72192
32.36667	3.678756
32.38333	3.633443
32.4	3.586276
32.41667	3.536861
32.43333	3.48901
32.45	3.447701
32.46667	3.413326
32.48333	3.378463
32.5	3.342623
32.51667	3.315279
32.53333	3.301608
32.55	3.29233
32.56667	3.275436
32.58333	3.254049
32.6	3.240279
32.61667	3.236764
32.63333	3.234127
32.65	3.225924
32.66667	3.20942
32.68333	3.188229
32.7	3.170455
32.71667	3.160006
32.73333	3.153658
32.75	3.146432
32.76667	3.138717
32.78333	3.129342
32.8	3.11899
32.81667	3.108639
32.83333	3.100924
32.85	3.097311
32.86667	3.098385
32.88333	3.103951
32.9	3.112057
32.91667	3.115084
32.93333	3.107272
32.95	3.09399
32.96667	3.084713
32.98333	3.079928
33	3.074264
33.01667	3.073385
33.03333	3.085006
33.05	3.102877
33.06667	3.114205
33.08333	3.116354
33.1	3.122994
33.11667	3.138424
33.13333	3.162252
33.15	3.197604
33.16667	3.252096
33.18333	3.319967
33.2	3.389205
33.21667	3.459713
33.23333	3.541061
33.25	3.63774
33.26667	3.740377
33.28333	3.837154
33.3	3.924947
33.31667	4.008737
33.33333	4.093502
33.35	4.174068
33.36667	4.23442
33.38333	4.264987
33.4	4.277486
33.41667	4.285592
33.43333	4.283932
33.45	4.260006
33.46667	4.22192
33.48333	4.185592
33.5	4.153463
33.51667	4.110787
33.53333	4.050826
33.55	3.981686
33.56667	3.912447
33.58333	3.844381
33.6	3.774654
33.61667	3.706295
33.63333	3.647311
33.65	3.60151
33.66667	3.567135
33.68333	3.536666
33.7	3.504635
33.71667	3.472408
33.73333	3.442233
33.75	3.411666
33.76667	3.379733
33.78333	3.349361
33.8	3.327779
33.81667	3.31274
33.83333	3.302486
33.85	3.292721
33.86667	3.281686
33.88333	3.269479
33.9	3.259615
33.91667	3.251217
33.93333	3.241842
33.95	3.230221
33.96667	3.219869
33.98333	3.21069
34	3.204928
34.01667	3.208346
34.03333	3.222115
34.05	3.237252
34.06667	3.245064
34.08333	3.243697
34.1	3.234518
34.11667	3.22358
34.13333	3.219576
34.15	3.22485
34.16667	3.231979
34.18333	3.231783
34.2	3.221529
34.21667	3.210201
34.23333	3.20776
34.25	3.214694
34.26667	3.222213
34.28333	3.224752
34.3	3.223092
34.31667	3.219869
34.33333	3.217818
34.35	3.22026
34.36667	3.225533
34.38333	3.228658
34.4	3.227779
34.41667	3.221822
34.43333	3.214694
34.45	3.210885
34.46667	3.215572
34.48333	3.225338
34.5	3.234029
34.51667	3.238326
34.53333	3.238424
34.55	3.237057
34.56667	3.233737
34.58333	3.232662
34.6	3.235592
34.61667	3.238131
34.63333	3.239205
34.65	3.241842
34.66667	3.248189
34.68333	3.257174
34.7	3.267232
34.71667	3.272604
34.73333	3.267525
34.75	3.255318
34.76667	3.245358
34.78333	3.244381
34.8	3.24858
34.81667	3.253561
34.83333	3.256588
34.85	3.261178
34.86667	3.270162
34.88333	3.279439
34.9	3.279049
34.91667	3.271725
34.93333	3.267232
34.95	3.266842
34.96667	3.268502
34.98333	3.269674
35	3.266842
35.01667	3.26235
35.03333	3.26274
35.05	3.270943
35.06667	3.283443
35.08333	3.294186
35.1	3.302389
35.11667	3.307076
35.13333	3.308932
35.15	3.308248
35.16667	3.303463
35.18333	3.296725
35.2	3.296725
35.21667	3.305709
35.23333	3.313522
35.25	3.31274
35.26667	3.310592
35.28333	3.315084
35.3	3.322896
35.31667	3.327779
35.33333	3.329928
35.35	3.32944
35.36667	3.325533
35.38333	3.318014
35.4	3.311568
35.41667	3.309908
35.43333	3.312154
35.45	3.316451
35.46667	3.320748
35.48333	3.32192
35.5	3.318502
35.51667	3.312154
35.53333	3.311959
35.55	3.323287
35.56667	3.336861
35.58333	3.338326
35.6	3.329928
35.61667	3.325826
35.63333	3.333639
35.65	3.344088
35.66667	3.345943
35.68333	3.341061
35.7	3.337252
35.71667	3.339694
35.73333	3.345943
35.75	3.34985
35.76667	3.351803
35.78333	3.356002
35.8	3.364303
35.81667	3.368795
35.83333	3.365865
35.85	3.359908
35.86667	3.360104
35.88333	3.368014
35.9	3.377389
35.91667	3.382272
35.93333	3.378561
35.95	3.3686
35.96667	3.359908
35.98333	3.36401
36	3.376022
36.01667	3.383736
36.03333	3.380123
36.05	3.371236
36.06667	3.366842
36.08333	3.373873
36.1	3.392525
36.11667	3.414693
36.13333	3.426315
36.15	3.426119
36.16667	3.41899
36.18333	3.408932
36.2	3.402389
36.21667	3.399557
36.23333	3.399947
36.25	3.398092
36.26667	3.395553
36.28333	3.394869
36.3	3.397604
36.31667	3.403854
36.33333	3.411178
36.35	3.421725
36.36667	3.433053
36.38333	3.437545
36.4	3.433444
36.41667	3.429147
36.43333	3.43442
36.45	3.445065
36.46667	3.447506
36.48333	3.43735
36.5	3.425338
36.51667	3.421822
36.53333	3.427682
36.55	3.436862
36.56667	3.44692
36.58333	3.455611
36.6	3.458932
36.61667	3.459225
36.63333	3.464108
36.65	3.475729
36.66667	3.486959
36.68333	3.489693
36.7	3.488815
36.71667	3.489791
36.73333	3.490377
36.75	3.486373
36.76667	3.479342
36.78333	3.475924
36.8	3.478854
36.81667	3.487643
36.83333	3.4936
36.85	3.490963
36.86667	3.481393
36.88333	3.474264
36.9	3.473971
36.91667	3.480026
36.93333	3.490572
36.95	3.499752
36.96667	3.501998
36.98333	3.49692
37	3.490963
37.01667	3.490475
37.03333	3.496139
37.05	3.504537
37.06667	3.511764
37.08333	3.512936
37.1	3.508736
37.11667	3.503658
37.13333	3.501315
37.15	3.504147
37.16667	3.514693
37.18333	3.530318
37.2	3.539596
37.21667	3.53735
37.23333	3.530025
37.25	3.523385
37.26667	3.522115
37.28333	3.528658
37.3	3.539303
37.31667	3.547604
37.33333	3.549361
37.35	3.548092
37.36667	3.548482
37.38333	3.549557
37.4	3.548971
37.41667	3.547213
37.43333	3.544088
37.45	3.542233
37.46667	3.545553
37.48333	3.551022
37.5	3.549947
37.51667	3.545064
37.53333	3.546237
37.55	3.551998
37.56667	3.551119
37.58333	3.543893
37.6	3.542526
37.61667	3.551608
37.63333	3.567623
37.65	3.585494
37.66667	3.599166
37.68333	3.603854
37.7	3.599264
37.71667	3.592818
37.73333	3.591744
37.75	3.596041
37.76667	3.599947
37.78333	3.59858
37.8	3.595357
37.81667	3.598287
37.83333	3.610397
37.85	3.626022
37.86667	3.635689
37.88333	3.634518
37.9	3.627096
37.91667	3.62192
37.93333	3.620358
37.95	3.620162
37.96667	3.623189
37.98333	3.630611
38	3.634322
38.01667	3.630123
38.03333	3.628365
38.05	3.635885
38.06667	3.64692
38.08333	3.652096
38.1	3.647897
38.11667	3.640279
38.13333	3.632858
38.15	3.630514
38.16667	3.634713
38.18333	3.642525
38.2	3.649166
38.21667	3.652877
38.23333	3.653951
38.25	3.654537
38.26667	3.654049
38.28333	3.652584
38.3	3.649654
38.31667	3.643307
38.33333	3.63276
38.35	3.62524
38.36667	3.628658
38.38333	3.640279
38.4	3.650436
38.41667	3.650338
38.43333	3.642916
38.45	3.634811
38.46667	3.631588
38.48333	3.637936
38.5	3.650338
38.51667	3.659127
38.53333	3.659322
38.55	3.655807
38.56667	3.655221
38.58333	3.663424
38.6	3.676705
38.61667	3.684908
38.63333	3.683151
38.65	3.679928
38.66667	3.683834
38.68333	3.695358
38.7	3.708443
38.71667	3.714303
38.73333	3.705318
38.75	3.688033
38.76667	3.680416
38.78333	3.686568
38.8	3.698483
38.81667	3.706393
38.83333	3.711959
38.85	3.717135
38.86667	3.722897
38.88333	3.729635
38.9	3.738717
38.91667	3.747115
38.93333	3.750729
38.95	3.745748
38.96667	3.737545
38.98333	3.736861
39	3.744479
39.01667	3.752389
39.03333	3.754928
39.05	3.757272
39.06667	3.765475
39.08333	3.781881
39.1	3.802584
39.11667	3.821139
39.13333	3.829342
39.15	3.828072
39.16667	3.82817
39.18333	3.837545
39.2	3.855807
39.21667	3.876412
39.23333	3.893014
39.25	3.907662
39.26667	3.920064
39.28333	3.936373
39.3	3.963521
39.31667	3.998385
39.33333	4.0311
39.35	4.056783
39.36667	4.080416
39.38333	4.106686
39.4	4.135885
39.41667	4.166646
39.43333	4.196237
39.45	4.228072
39.46667	4.263717
39.48333	4.299459
39.5	4.331393
39.51667	4.356881
39.53333	4.379635
39.55	4.399068
39.56667	4.420553
39.58333	4.4519
39.6	4.492428
39.61667	4.532174
39.63333	4.565963
39.65	4.602877
39.66667	4.648678
39.68333	4.699947
39.7	4.751998
39.71667	4.800533
39.73333	4.83608
39.75	4.85815
39.76667	4.884518
39.78333	4.92817
39.8	4.985396
39.81667	5.04067
39.83333	5.085006
39.85	5.121432
39.86667	5.158443
39.88333	5.201022
39.9	5.245944
39.91667	5.290084
39.93333	5.335006
39.95	5.378561
39.96667	5.419088
39.98333	5.459322
40	5.503268
40.01667	5.547701
40.03333	5.587643
40.05	5.628951
40.06667	5.677975
40.08333	5.730611
40.1	5.77651
40.11667	5.815182
40.13333	5.850631
40.15	5.885592
40.16667	5.92651
40.18333	5.980709
40.2	6.044478
40.21667	6.105709
40.23333	6.158443
40.25	6.205807
40.26667	6.254049
40.28333	6.30776
40.3	6.363814
40.31667	6.416451
40.33333	6.461471
40.35	6.500338
40.36667	6.541354
40.38333	6.589205
40.4	6.643307
40.41667	6.695357
40.43333	6.741451
40.45	6.786764
40.46667	6.838326
40.48333	6.893014
40.5	6.937448
40.51667	6.96528
40.53333	6.986373
40.55	7.013326
40.56667	7.048482
40.58333	7.088131
40.6	7.133933
40.61667	7.195261
40.63333	7.274655
40.65	7.358542
40.66667	7.431979
40.68333	7.48735
40.7	7.52612
40.71667	7.543893
40.73333	7.53696
40.75	7.509811
40.76667	7.476608
40.78333	7.447214
40.8	7.425339
40.81667	7.410788
40.83333	7.401511
40.85	7.394089
40.86667	7.382468
40.88333	7.367722
40.9	7.35776
40.91667	7.361667
40.93333	7.372702
40.95	7.383347
40.96667	7.389987
40.98333	7.395358
41	7.40571
41.01667	7.42153
41.03333	7.437253
41.05	7.445065
41.06667	7.445261
41.08333	7.444577
41.1	7.4478
41.11667	7.459323
41.13333	7.479147
41.15	7.502389
41.16667	7.522799
41.18333	7.541647
41.2	7.560397
41.21667	7.578073
41.23333	7.596921
41.25	7.621823
41.26667	7.647116
41.28333	7.666647
41.3	7.684128
41.31667	7.70864
41.33333	7.732468
41.35	7.743405
41.36667	7.740476
41.38333	7.739011
41.4	7.747507
41.41667	7.761472
41.43333	7.775339
41.45	7.786569
41.46667	7.797311
41.48333	7.814303
41.5	7.838815
41.51667	7.862546
41.53333	7.874069
41.55	7.877975
41.56667	7.891257
41.58333	7.917331
41.6	7.94194
41.61667	7.957077
41.63333	7.970553
41.65	7.991354
41.66667	8.014499
41.68333	8.033152
41.7	8.044675
41.71667	8.054049
41.73333	8.06069
41.75	8.063327
41.76667	8.069479
41.78333	8.087448
41.8	8.111081
41.81667	8.126315
41.83333	8.134616
41.85	8.150339
41.86667	8.177487
41.88333	8.208151
41.9	8.230319
41.91667	8.243113
41.93333	8.247702
41.95	8.252096
41.96667	8.261374
41.98333	8.275241
42	8.28569
42.01667	8.287155
42.03333	8.285007
42.05	8.290573
42.06667	8.305807
42.08333	8.322995
42.1	8.330124
42.11667	8.326999
42.13333	8.32446
42.15	8.333249
42.16667	8.35112
42.18333	8.363327
42.2	8.360202
42.21667	8.35571
42.23333	8.362741
42.25	8.377584
42.26667	8.390964
42.28333	8.399753
42.3	8.403366
42.31667	8.404538
42.33333	8.410788
42.35	8.417917
42.36667	8.417917
42.38333	8.414499
42.4	8.417038
42.41667	8.423971
42.43333	8.427683
42.45	8.426511
42.46667	8.426706
42.48333	8.433542
42.5	8.447019
42.51667	8.457077
42.53333	8.454928
42.55	8.44282
42.56667	8.437155
42.58333	8.445554
42.6	8.458054
42.61667	8.465769
42.63333	8.474362
42.65	8.485983
42.66667	8.487936
42.68333	8.476804
42.7	8.469968
42.71667	8.473386
42.73333	8.479342
42.75	8.481003
42.76667	8.478464
42.78333	8.473679
42.8	8.46655
42.81667	8.460788
42.83333	8.456198
42.85	8.451999
42.86667	8.440475
42.88333	8.415476
42.9	8.375631
42.91667	8.33198
42.93333	8.302585
42.95	8.299069
42.96667	8.316257
42.98333	8.343307
43	8.372507
43.01667	8.401022
43.03333	8.429538
43.05	8.454636
43.06667	8.467526
43.08333	8.466159
43.1	8.45444
43.11667	8.435202
43.13333	8.403757
43.15	8.339597
43.16667	8.224264
43.18333	8.061276
43.2	7.875632
43.21667	7.678952
43.23333	7.461569
43.25	7.21694
43.26667	6.955709
43.28333	6.694967
43.3	6.451705
43.31667	6.234323
43.33333	6.036178
43.35	5.842135
43.36667	5.651803
43.38333	5.470553
43.4	5.300826
43.41667	5.141256
43.43333	4.990377
43.45	4.846432
43.46667	4.708346
43.48333	4.576022
43.5	4.451217
43.51667	4.327877
43.53333	4.198483
43.55	4.064498
43.56667	3.936471
43.58333	3.822506
43.6	3.717623
43.61667	3.613424
43.63333	3.504147
43.65	3.391061
43.66667	3.280514
43.68333	3.177584
43.7	3.085104
43.71667	3.001217
43.73333	2.922994
43.75	2.842037
43.76667	2.751022
43.78333	2.65317
43.8	2.55942
43.81667	2.475436
43.83333	2.402779
43.85	2.343307
43.86667	2.290572
43.88333	2.234713
43.9	2.168697
43.91667	2.096041
43.93333	2.022799
43.95	1.953561
43.96667	1.889596
43.98333	1.830611
44	1.778756
44.01667	1.730221
44.03333	1.677389
44.05	1.620162
44.06667	1.566647
44.08333	1.517916
44.1	1.468404
44.11667	1.415768
44.13333	1.370651
44.15	1.338033
44.16667	1.309518
44.18333	1.278365
44.2	1.243014
44.21667	1.2061
44.23333	1.168307
44.25	1.135201
44.26667	1.112252
44.28333	1.096725
44.3	1.078951
44.31667	1.052682
44.33333	1.022897
44.35	0.9936973
44.36667	0.9660606
44.38333	0.9422325
44.4	0.9224083
44.41667	0.9072716
44.43333	0.8942833
44.45	0.8809044
44.46667	0.85942
44.48333	0.8320763
44.5	0.8095177
44.51667	0.7994591
44.53333	0.7946739
44.55	0.7841271
44.56667	0.7645958
44.58333	0.744381
44.6	0.7238731
44.61667	0.7038536
44.63333	0.6797325
44.65	0.6567833
44.66667	0.6354942
44.68333	0.6123497
44.7	0.5837364
44.71667	0.553463
44.73333	0.5291466
44.75	0.5110801
44.76667	0.4948692
44.78333	0.4780723
44.8	0.4634239
44.81667	0.4491661
44.83333	0.4294395
44.85	0.4030724
44.86667	0.378756
44.88333	0.369088
44.9	0.3686973
44.91667	0.3619591
44.93333	0.3444786
44.95	0.3270958
44.96667	0.3148888
44.98333	0.3026817
45	0.2861778
45.01667	0.26567
45.03333	0.2491661
45.05	0.2388145
45.06667	0.2303185
45.08333	0.2210411
45.1	0.2088341
45.11667	0.19692
45.13333	0.1881309
45.15	0.184127
45.16667	0.1807091
45.18333	0.175338
45.2	0.1653771
45.21667	0.1518028
45.23333	0.1373497
45.25	0.1271935
45.26667	0.1229942
45.28333	0.1228966
45.3	0.1248497
45.31667	0.1282677
45.33333	0.1294395
45.35	0.1234825
45.36667	0.1126427
45.38333	0.1026817
45.4	0.09496689
45.41667	0.0897911
45.43333	0.08940049
45.45	0.09027939
45.46667	0.08471298
45.48333	0.07377549
45.5	0.0663536
45.51667	0.06977157
45.53333	0.08012314
45.55	0.08969345
45.56667	0.08871689
45.58333	0.08041611
45.6	0.07572861
45.61667	0.07582626
45.63333	0.0732872
45.65	0.06488876
45.66667	0.05824814
45.68333	0.05600204
45.7	0.05590439
45.71667	0.05317001
45.73333	0.04565048
45.75	0.03529892
45.76667	0.02494736
45.78333	0.01918564
45.8	0.01537704
45.81667	0.007466889
45.83333	-0.003079987
45.85	-0.006400299
45.86667	0.002681732
45.88333	0.0123497
45.9	0.01127548
45.91667	0.00404892
45.93333	0.0007286072
45.95	0.004537201
45.96667	0.009420013
45.98333	0.009615326
46	0.00170517
46.01667	-0.01362686
46.03333	-0.0298378
46.05	-0.03618545
46.06667	-0.02905655
46.08333	-0.01714249
46.1	-0.01352921
46.11667	-0.02182999
46.13333	-0.0322792
46.15	-0.03901749
46.16667	-0.04126358
46.18333	-0.04175186
46.2	-0.04175186
46.21667	-0.04106827
46.23333	-0.03618545
46.25	-0.0282753
46.26667	-0.02534561
46.28333	-0.03052139
46.3	-0.03735733
46.31667	-0.03911514
46.33333	-0.03774796
46.35	-0.03794327
46.36667	-0.03970108
46.38333	-0.04263077
46.4	-0.04643936
46.41667	-0.04966202
46.43333	-0.05366592
46.45	-0.06138077
46.46667	-0.06538467
46.48333	-0.06001358
46.5	-0.04868545
46.51667	-0.04302139
46.53333	-0.04184952
46.55	-0.03999405
46.56667	-0.04048233
46.58333	-0.04975967
46.6	-0.06352921
46.61667	-0.06743546
46.63333	-0.05962295
46.65	-0.04731827
46.66667	-0.04087295
46.68333	-0.04350967
46.7	-0.05054092
46.71667	-0.05141983
46.73333	-0.04536514
46.75	-0.04184952
46.76667	-0.04888077
46.78333	-0.06128311
46.8	-0.06841202
46.81667	-0.07007217
46.83333	-0.06880264
46.85	-0.06509171
46.86667	-0.05874405
46.88333	-0.05454483
46.9	-0.05630264
46.91667	-0.06099014
46.93333	-0.06225967
46.95	-0.06079483
46.96667	-0.05630264
46.98333	-0.05220108
47	-0.0501503
47.01667	-0.05034561
47.03333	-0.04849014
47.05	-0.04350967
47.06667	-0.03882217
47.08333	-0.03804092
47.1	-0.04136124
47.11667	-0.04565811
47.13333	-0.05122452
47.15	-0.06099014
47.16667	-0.07339249
47.18333	-0.08120499
47.2	-0.0775917
47.21667	-0.0682167
47.23333	-0.06460343
47.25	-0.0664589
47.26667	-0.06792374
47.28333	-0.06606827
47.3	-0.06323624
47.31667	-0.06030655
47.33333	-0.05874405
47.35	-0.06020889
47.36667	-0.06235733
47.38333	-0.0642128
47.4	-0.06479874
47.41667	-0.06050186
47.43333	-0.05034561
47.45	-0.04087295
47.46667	-0.03686905
47.48333	-0.03931046
47.5	-0.04604874
47.51667	-0.05288468
47.53333	-0.05737686
47.55	-0.05884171
47.56667	-0.05874405
47.58333	-0.05688858
47.6	-0.05366592
47.61667	-0.04975967
47.63333	-0.04780655
47.65	-0.04888077
47.66667	-0.05415421
47.68333	-0.06206436
47.7	-0.06684951
47.71667	-0.06753311
47.73333	-0.06753311
47.75	-0.06997452
47.76667	-0.07475968
47.78333	-0.07934952
47.8	-0.08013077
47.81667	-0.07681046
47.83333	-0.07134171
47.85	-0.06548233
47.86667	-0.05815811
47.88333	-0.04780655
47.9	-0.03804092
47.91667	-0.02964249
47.93333	-0.0251503
47.95	-0.02798233
47.96667	-0.03599014
47.98333	-0.04136124
48	-0.03931046
48.01667	-0.03823624
48.03333	-0.04516983
48.05	-0.0525917
48.06667	-0.05395889
48.08333	-0.0517128
48.1	-0.05347061
48.11667	-0.05962295
48.13333	-0.06372452
48.15	-0.06655655
48.16667	-0.06841202
48.18333	-0.0657753
48.2	-0.05737686
48.21667	-0.05083389
48.23333	-0.04966202
48.25	-0.04653702
48.26667	-0.03657608
48.28333	-0.02563858
48.3	-0.02114639
48.31667	-0.02309952
48.33333	-0.02378311
48.35	-0.01909561
48.36667	-0.01391983
48.38333	-0.01645889
48.4	-0.02388077
48.41667	-0.03003311
48.43333	-0.03325577
48.45	-0.03315811
48.46667	-0.03325577
48.48333	-0.03716202
48.5	-0.04497452
48.51667	-0.04966202
48.53333	-0.04565811
48.55	-0.03638077
48.56667	-0.02974014
48.58333	-0.02729874
48.6	-0.02466202
48.61667	-0.02085342
48.63333	-0.02339249
48.65	-0.03354874
48.66667	-0.04184952
48.68333	-0.04302139
48.7	-0.04243546
48.71667	-0.04370499
48.73333	-0.04136124
48.75	-0.03745499
48.76667	-0.04067764
48.78333	-0.05034561
48.8	-0.05493546
48.81667	-0.04888077
48.83333	-0.04067764
48.85	-0.03970108
48.86667	-0.04516983
48.88333	-0.05161514
48.9	-0.05317764
48.91667	-0.04936905
48.93333	-0.04292374
48.95	-0.03628311
48.96667	-0.02798233
48.98333	-0.01606827
49	-0.00610733
49.01667	-0.00766983
49.03333	-0.01597061
49.05	-0.0189003
49.06667	-0.01157608
49.08333	-0.003470612
49.1	-0.0003456116
49.11667	-0.003958893
49.13333	-0.01548233
49.15	-0.03003311
49.16667	-0.04214249
49.18333	-0.05102921
49.2	-0.05737686
49.21667	-0.06020889
49.23333	-0.05747452
49.25	-0.05210342
49.26667	-0.04526749
49.28333	-0.03638077
49.3	-0.02866592
49.31667	-0.02768936
49.33333	-0.03286514
49.35	-0.04057999
49.36667	-0.04975967
49.38333	-0.05542374
49.4	-0.05190811
49.41667	-0.04145889
49.43333	-0.03335343
49.45	-0.03286514
49.46667	-0.03481827
49.48333	-0.03735733
49.5	-0.04057999
49.51667	-0.04360733
49.53333	-0.04018936
49.55	-0.03071671
49.56667	-0.02339249
49.58333	-0.0204628
49.6	-0.01958389
49.61667	-0.01811905
49.63333	-0.01704483
49.65	-0.01518936
49.66667	-0.01294327
49.68333	-0.01509171
49.7	-0.02388077
49.71667	-0.03638077
49.73333	-0.04614639
49.75	-0.04585342
49.76667	-0.03559952
49.78333	-0.02222061
49.8	-0.01186905
49.81667	-0.009329987
49.83333	-0.01313858
49.85	-0.02456436
49.86667	-0.03725968
49.88333	-0.04429092
49.9	-0.04253311
49.91667	-0.03755264
49.93333	-0.03511124
49.95	-0.03374405
49.96667	-0.03032608
49.98333	-0.03061905
50	-0.03960342
50.01667	-0.0517128
50.03333	-0.05444717
50.05	-0.04516983
50.06667	-0.03208389
50.08333	-0.02319717
50.1	-0.02114639
50.11667	-0.02427139
50.13333	-0.02798233
50.15	-0.03110733
50.16667	-0.03833389
50.18333	-0.04868545
50.2	-0.05307999
50.21667	-0.04800186
50.23333	-0.03911514
50.25	-0.03374405
50.26667	-0.03315811
50.28333	-0.03384171
50.3	-0.02886124
50.31667	-0.01557999
50.33333	-0.00141983
50.35	0.002974701
50.36667	-0.002396393
50.38333	-0.01391983
50.4	-0.02368546
50.41667	-0.02651749
50.43333	-0.02622452
50.45	-0.03022842
50.46667	-0.0392128
50.48333	-0.04614639
50.5	-0.04370499
50.51667	-0.03432999
50.53333	-0.02661514
50.55	-0.02388077
50.56667	-0.02251358
50.58333	-0.02212295
50.6	-0.02915421
50.61667	-0.04165421
50.63333	-0.04868545
50.65	-0.04868545
50.66667	-0.0470253
50.68333	-0.04585342
50.7	-0.04438858
50.71667	-0.04380264
50.73333	-0.04175186
50.75	-0.03266983
50.76667	-0.01860733
50.78333	-0.007767486
50.8	-0.004056549
50.81667	-0.007181549
50.83333	-0.02026749
50.85	-0.03813858
50.86667	-0.05151749
50.88333	-0.05425186
50.9	-0.04985733
50.91667	-0.04311905
50.93333	-0.03530655
50.95	-0.0298378
50.96667	-0.02954483
50.98333	-0.03110733
51	-0.03003311
51.01667	-0.02720108
51.03333	-0.02612686
51.05	-0.02495499
51.06667	-0.02056045
51.08333	-0.0166542
51.1	-0.02016983
51.11667	-0.03013077
51.13333	-0.03872452
51.15	-0.04448624
51.16667	-0.05122452
51.18333	-0.06245499
51.2	-0.06968155
51.21667	-0.06636123
51.23333	-0.05307999
51.25	-0.04224014
51.26667	-0.03891983
51.28333	-0.03677139
51.3	-0.03130264
51.31667	-0.02749405
51.33333	-0.03149796
51.35	-0.04263077
51.36667	-0.05561905
51.38333	-0.06313858
51.4	-0.06382217
51.41667	-0.05806046
51.43333	-0.04712296
51.45	-0.03940811
51.46667	-0.04526749
51.48333	-0.06362686
51.5	-0.07632218
51.51667	-0.07446671
51.53333	-0.06284561
51.55	-0.05044327
51.56667	-0.04331436
51.58333	-0.04106827
51.6	-0.03999405
51.61667	-0.03950577
51.63333	-0.04097061
51.65	-0.04204483
51.66667	-0.04106827
51.68333	-0.03979874
51.7	-0.04057999
51.71667	-0.03950577
51.73333	-0.03794327
51.75	-0.03882217
51.76667	-0.04184952
51.78333	-0.04184952
51.8	-0.03559952
51.81667	-0.02876358
51.83333	-0.03022842
51.85	-0.0400917
51.86667	-0.04653702
51.88333	-0.03940811
51.9	-0.02573624
51.91667	-0.01235733
51.93333	-0.002396393
51.95	0.002291107
51.96667	-0.001126862
51.98333	-0.01186905
52	-0.02368546
52.01667	-0.03110733
52.03333	-0.03354874
52.05	-0.02974014
52.06667	-0.02593155
52.08333	-0.02759171
52.1	-0.02964249
52.11667	-0.02456436
52.13333	-0.01548233
52.15	-0.01216202
52.16667	-0.01811905
52.18333	-0.02925186
52.2	-0.04741592
52.21667	-0.06753311
52.23333	-0.07261124
52.25	-0.0579628
52.26667	-0.03579483
52.28333	-0.02475967
52.3	-0.02593155
52.31667	-0.03003311
52.33333	-0.02807999
52.35	-0.02231827
52.36667	-0.02007217
52.38333	-0.02290421
52.4	-0.02573624
52.41667	-0.02329483
52.43333	-0.01694717
52.45	-0.01255264
52.46667	-0.01509171
52.48333	-0.02593155
52.5	-0.03901749
52.51667	-0.04419327
52.53333	-0.03891983
52.55	-0.03052139
52.56667	-0.02641983
52.58333	-0.02798233
52.6	-0.03354874
52.61667	-0.03852921
52.63333	-0.04057999
52.65	-0.04126358
52.66667	-0.0407753
52.68333	-0.03579483
52.7	-0.02700577
52.71667	-0.02153702
52.73333	-0.02026749
52.75	-0.02212295
52.76667	-0.0267128
52.78333	-0.02905655
52.8	-0.02739639
52.81667	-0.02661514
52.83333	-0.0322792
52.85	-0.03716202
52.86667	-0.03579483
52.88333	-0.03462296
52.9	-0.03833389
52.91667	-0.04184952
52.93333	-0.04038467
52.95	-0.03667374
52.96667	-0.03423233
52.98333	-0.03315811
53	-0.03237686
53.01667	-0.02934952
53.03333	-0.02583389
53.05	-0.02485733
53.06667	-0.02563858
53.08333	-0.02720108
53.1	-0.03306045
53.11667	-0.04155655
53.13333	-0.04556046
53.15	-0.04380264
53.16667	-0.04751358
53.18333	-0.05981827
53.2	-0.06509171
53.21667	-0.05268936
53.23333	-0.03198624
53.25	-0.01694717
53.26667	-0.01528702
53.28333	-0.02544327
53.3	-0.03745499
53.31667	-0.04438858
53.33333	-0.04595108
53.35	-0.04780655
53.36667	-0.05356827
53.38333	-0.0579628
53.4	-0.05249405
53.41667	-0.03862686
53.43333	-0.02309952
53.45	-0.01255264
53.46667	-0.009818268
53.48333	-0.01255264
53.5	-0.0189003
53.51667	-0.02427139
53.53333	-0.02651749
53.55	-0.02710342
53.56667	-0.02837295
53.58333	-0.02817764
53.6	-0.02378311
53.61667	-0.01909561
53.63333	-0.02231827
53.65	-0.03003311
53.66667	-0.03130264
53.68333	-0.02397842
53.7	-0.0204628
53.71667	-0.02749405
53.73333	-0.04048233
53.75	-0.04966202
53.76667	-0.05005264
53.78333	-0.04155655
53.8	-0.02944717
53.81667	-0.01792374
53.83333	-0.007767486
53.85	-0.004935456
53.86667	-0.01196671
53.88333	-0.0235878
53.9	-0.02759171
53.91667	-0.02319717
53.93333	-0.01772842
53.95	-0.01460342
53.96667	-0.0142128
53.98333	-0.01274796
54	-0.0126503
54.01667	-0.02065811
54.03333	-0.0314003
54.05	-0.03530655
54.06667	-0.03110733
54.08333	-0.02788467
54.1	-0.03081436
54.11667	-0.03618545
54.13333	-0.04097061
54.15	-0.0423378
54.16667	-0.03706436
54.18333	-0.02651749
54.2	-0.01919327
54.21667	-0.02153702
54.23333	-0.0282753
54.25	-0.02837295
54.26667	-0.01880264
54.28333	-0.01167374
54.3	-0.0166542
54.31667	-0.02651749
54.33333	-0.03276749
54.35	-0.03559952
54.36667	-0.03804092
54.38333	-0.03706436
54.4	-0.03003311
54.41667	-0.01958389
54.43333	-0.0126503
54.45	-0.01655655
54.46667	-0.02778702
54.48333	-0.0400917
54.5	-0.0470253
54.51667	-0.04927139
54.53333	-0.04917374
54.55	-0.04624405
54.56667	-0.04136124
54.58333	-0.03618545
54.6	-0.02944717
54.61667	-0.02036514
54.63333	-0.0173378
54.65	-0.0235878
54.66667	-0.02886124
54.68333	-0.02593155
54.7	-0.01909561
54.71667	-0.01460342
54.73333	-0.01186905
54.75	-0.01147842
54.76667	-0.0157753
54.78333	-0.02182999
54.8	-0.0260292
54.81667	-0.02837295
54.83333	-0.02778702
54.85	-0.02544327
54.86667	-0.02456436
54.88333	-0.02651749
54.9	-0.02944717
54.91667	-0.03091202
54.93333	-0.0298378
54.95	-0.0260292
54.96667	-0.02456436
54.98333	-0.03061905
55	-0.03911514
