"SampleName"	"2.5pmol 2AA-CT"
"System Name"	"Alliance 2"
"Sample Set Name"	"DTtV_15052025 GSL new HPLC"
"Date Acquired"	"5/16/2025 12:35:41 PM BST"
"Sample Set Start Date"	"5/15/2025 2:04:31 PM BST"
0	0.001354981
0.01666667	0.002949905
0.03333333	0.0006843567
0.05	0.004395294
0.06666667	0.01230545
0.08333333	0.02119217
0.1	0.03095779
0.1166667	0.04648514
0.1333333	0.06865311
0.15	0.08535232
0.1666667	0.08750077
0.1833333	0.07968827
0.2	0.07304764
0.2166667	0.07568435
0.2333333	0.0865242
0.25	0.0997078
0.2666667	0.1041023
0.2833333	0.09580155
0.3	0.08115311
0.3166667	0.07304764
0.3333333	0.07568435
0.35	0.08310623
0.3666667	0.08837967
0.3833333	0.09082107
0.4	0.09140702
0.4166667	0.08906326
0.4333333	0.08613358
0.45	0.08525467
0.4666667	0.08574295
0.4833333	0.08554764
0.5	0.08476639
0.5166667	0.08525467
0.5333333	0.08310623
0.55	0.08037186
0.5666667	0.07929764
0.5833333	0.08086014
0.6	0.08300857
0.6166667	0.0849617
0.6333333	0.08584061
0.65	0.08457108
0.6666667	0.08095779
0.6833333	0.07851639
0.7	0.08144607
0.7166667	0.08789138
0.7333333	0.09101639
0.75	0.08818436
0.7666667	0.08662186
0.7833333	0.09228592
0.8	0.09951248
0.8166667	0.09980545
0.8333333	0.09179763
0.85	0.07900467
0.8666667	0.06787185
0.8833333	0.06416092
0.9	0.06533279
0.9166667	0.06318436
0.9333333	0.0568367
0.95	0.0552742
0.9666667	0.06123123
0.9833333	0.06679764
1	0.06953201
1.016667	0.06982498
1.033333	0.06523514
1.05	0.05195389
1.066667	0.03789139
1.083333	0.03252029
1.1	0.03544998
1.116667	0.03935623
1.133333	0.03632889
1.15	0.02773514
1.166667	0.02441483
1.183333	0.03525467
1.2	0.05586014
1.216667	0.0700203
1.233333	0.07099686
1.25	0.06201248
1.266667	0.04912186
1.283333	0.03994217
1.3	0.03574295
1.316667	0.03437576
1.333333	0.03632889
1.35	0.04296951
1.366667	0.04765701
1.383333	0.04326248
1.4	0.03242264
1.416667	0.02177811
1.433333	0.01025467
1.45	-0.001854706
1.466667	-0.008202362
1.483333	-0.004589081
1.5	0.006446076
1.516667	0.02070389
1.533333	0.03310623
1.55	0.03632889
1.566667	0.02724686
1.583333	0.01328201
1.6	0.004785919
1.616667	0.004297638
1.633333	0.007520294
1.65	0.01591873
1.666667	0.02451248
1.683333	0.02627029
1.7	0.01845779
1.716667	0.006250763
1.733333	-0.002342987
1.75	-0.01132736
1.766667	-0.01884689
1.783333	-0.01621017
1.8	-0.001561737
1.816667	0.01298904
1.833333	0.01171951
1.85	0.0005867005
1.866667	-0.007030487
1.883333	-0.005760956
1.9	0.001074982
1.916667	0.01240311
1.933333	0.02431717
1.95	0.02910233
1.966667	0.02255936
1.983333	0.01230545
2	0.007324982
2.016667	0.007129669
2.033333	0.006055451
2.05	0.00136795
2.066667	-0.006835175
2.083333	-0.01562424
2.1	-0.02206955
2.116667	-0.02275314
2.133333	-0.01835861
2.15	-0.01406174
2.166667	-0.0166008
2.183333	-0.02724533
2.2	-0.03720627
2.216667	-0.03740158
2.233333	-0.02802658
2.25	-0.01992111
2.266667	-0.01777267
2.283333	-0.01621017
2.3	-0.007421112
2.316667	0.004004669
2.333333	0.01103592
2.35	0.01318436
2.366667	0.0162117
2.383333	0.0193367
2.4	0.01679764
2.416667	0.01328201
2.433333	0.02421951
2.45	0.05703201
2.466667	0.1029304
2.483333	0.1473641
2.5	0.1816414
2.516667	0.207032
2.533333	0.2271492
2.55	0.2371101
2.566667	0.2330086
2.583333	0.2169929
2.6	0.1993172
2.616667	0.1853523
2.633333	0.1701179
2.65	0.1522469
2.666667	0.1331062
2.683333	0.1146492
2.7	0.09599686
2.716667	0.07851639
2.733333	0.06757889
2.75	0.06494217
2.766667	0.06650467
2.783333	0.06611405
2.8	0.05673904
2.816667	0.04023514
2.833333	0.0287117
2.85	0.02392654
2.866667	0.01718826
2.883333	0.002637482
2.9	-0.01279221
2.916667	-0.02509689
2.933333	-0.03886642
2.95	-0.05439377
2.966667	-0.07001877
2.983333	-0.08242111
3	-0.08876877
3.016667	-0.08925705
3.033333	-0.08369064
3.05	-0.07734299
3.066667	-0.07724533
3.083333	-0.08085861
3.1	-0.08310471
3.116667	-0.08242111
3.133333	-0.07900314
3.15	-0.07050705
3.166667	-0.06288986
3.183333	-0.06103439
3.2	-0.06318283
3.216667	-0.06162033
3.233333	-0.05439377
3.25	-0.04931564
3.266667	-0.05273361
3.283333	-0.05263596
3.3	-0.02675705
3.316667	0.03173904
3.333333	0.1108406
3.35	0.1900398
3.366667	0.2490242
3.383333	0.2715828
3.4	0.2550789
3.416667	0.2144539
3.433333	0.1644539
3.45	0.1185554
3.466667	0.0865242
3.483333	0.07041092
3.5	0.06513748
3.516667	0.07236405
3.533333	0.09951248
3.55	0.1404305
3.566667	0.1795906
3.583333	0.2064461
3.6	0.226075
3.616667	0.2431648
3.633333	0.2619148
3.65	0.278907
3.666667	0.2920906
3.683333	0.3035164
3.7	0.3208992
3.716667	0.3500984
3.733333	0.3818367
3.75	0.4009773
3.766667	0.4016609
3.783333	0.3875984
3.8	0.3642586
3.816667	0.3355476
3.833333	0.3031258
3.85	0.2686531
3.866667	0.2376961
3.883333	0.212989
3.9	0.1896492
3.916667	0.1628914
3.933333	0.1422859
3.95	0.1341805
3.966667	0.1352547
3.983333	0.1424812
4	0.1600594
4.016667	0.1899422
4.033333	0.2166023
4.05	0.2294929
4.066667	0.2333992
4.083333	0.2383797
4.1	0.2417976
4.116667	0.2347664
4.133333	0.2175789
4.15	0.1960945
4.166667	0.1775398
4.183333	0.1650398
4.2	0.1578133
4.216667	0.1498055
4.233333	0.1372078
4.25	0.1231453
4.266667	0.1131844
4.283333	0.1079109
4.3	0.1014656
4.316667	0.09091873
4.333333	0.08037186
4.35	0.07197342
4.366667	0.06630936
4.383333	0.06289139
4.4	0.0615242
4.416667	0.0599617
4.433333	0.05595779
4.45	0.04961014
4.466667	0.04628982
4.483333	0.04834061
4.5	0.05605545
4.516667	0.0615242
4.533333	0.06230545
4.55	0.0639656
4.566667	0.07343826
4.583333	0.09111404
4.6	0.1099617
4.616667	0.1181648
4.633333	0.1124031
4.65	0.1000008
4.666667	0.09052811
4.683333	0.08720779
4.7	0.08584061
4.716667	0.08789138
4.733333	0.09560623
4.75	0.1019539
4.766667	0.09873123
4.783333	0.08730545
4.8	0.08593826
4.816667	0.1008797
4.833333	0.1196297
4.85	0.1275398
4.866667	0.1237312
4.883333	0.1160164
4.9	0.110157
4.916667	0.1094734
4.933333	0.1115242
4.95	0.1099617
4.966667	0.1008797
4.983333	0.0927742
5	0.09775467
5.016667	0.1166023
5.033333	0.1416023
5.05	0.1687508
5.066667	0.2001961
5.083333	0.2343758
5.1	0.2636726
5.116667	0.2825203
5.133333	0.2894539
5.15	0.2860359
5.166667	0.2740242
5.183333	0.2583992
5.2	0.2428719
5.216667	0.2258797
5.233333	0.2085945
5.25	0.1984383
5.266667	0.1890633
5.283333	0.1702156
5.3	0.1494148
5.316667	0.1388679
5.333333	0.1349617
5.35	0.126075
5.366667	0.1112312
5.383333	0.09921952
5.4	0.09384842
5.416667	0.0952156
5.433333	0.09716873
5.45	0.09150467
5.466667	0.08056717
5.483333	0.07304764
5.5	0.07353592
5.516667	0.07519607
5.533333	0.07685623
5.55	0.08310623
5.566667	0.0934578
5.583333	0.1023445
5.6	0.1096687
5.616667	0.1217781
5.633333	0.1415047
5.65	0.1644539
5.666667	0.1874031
5.683333	0.2057625
5.7	0.2209969
5.716667	0.2308601
5.733333	0.2328133
5.75	0.2269539
5.766667	0.2173836
5.783333	0.2056648
5.8	0.191993
5.816667	0.1784187
5.833333	0.1691414
5.85	0.1627937
5.866667	0.1565437
5.883333	0.1502937
5.9	0.1447273
5.916667	0.1381844
5.933333	0.1268562
5.95	0.1146492
5.966667	0.1047859
5.983333	0.09951248
6	0.09531327
6.016667	0.08750077
6.033333	0.08017655
6.05	0.07910232
6.066667	0.08222733
6.083333	0.0795906
6.1	0.07353592
6.116667	0.07724686
6.133333	0.09160233
6.15	0.1003914
6.166667	0.09404373
6.183333	0.0849617
6.2	0.08886795
6.216667	0.1032234
6.233333	0.1149422
6.25	0.119825
6.266667	0.1202156
6.283333	0.1189461
6.3	0.1144539
6.316667	0.1078133
6.333333	0.09863357
6.35	0.08925857
6.366667	0.08486404
6.383333	0.08349685
6.4	0.07890701
6.416667	0.06914139
6.433333	0.0615242
6.45	0.06123123
6.466667	0.06533279
6.483333	0.06923904
6.5	0.0724617
6.516667	0.07890701
6.533333	0.08886795
6.55	0.09765701
6.566667	0.09668045
6.583333	0.08486404
6.6	0.0700203
6.616667	0.05703201
6.633333	0.04941482
6.65	0.05205154
6.666667	0.0615242
6.683333	0.06953201
6.7	0.07529373
6.716667	0.08603592
6.733333	0.1094734
6.75	0.1416023
6.766667	0.1739265
6.783333	0.1968758
6.8	0.2079109
6.816667	0.2156258
6.833333	0.228614
6.85	0.2429695
6.866667	0.2511726
6.883333	0.2540047
6.9	0.2608406
6.916667	0.276368
6.933333	0.2958992
6.95	0.3111336
6.966667	0.313868
6.983333	0.31045
7	0.3143562
7.016667	0.3330086
7.033333	0.3565437
7.05	0.3688484
7.066667	0.3688484
7.083333	0.3688484
7.1	0.3774422
7.116667	0.3918953
7.133333	0.4008797
7.15	0.4035164
7.166667	0.4038094
7.183333	0.4018562
7.2	0.3968758
7.216667	0.3941414
7.233333	0.4031258
7.25	0.4259773
7.266667	0.4589851
7.283333	0.5071297
7.3	0.5797859
7.316667	0.6799812
7.333333	0.8059578
7.35	0.9599617
7.366667	1.138575
7.383333	1.327735
7.4	1.509083
7.416667	1.668751
7.433333	1.793458
7.45	1.873536
7.466667	1.906837
7.483333	1.900782
7.5	1.855372
7.516667	1.76836
7.533333	1.645704
7.55	1.505567
7.566667	1.365333
7.583333	1.231544
7.6	1.1042
7.616667	0.9796883
7.633333	0.8611336
7.65	0.7531258
7.666667	0.6591805
7.683333	0.5774422
7.7	0.5042
7.716667	0.441407
7.733333	0.394239
7.75	0.3593758
7.766667	0.3275398
7.783333	0.2957039
7.8	0.2663094
7.816667	0.2372078
7.833333	0.2033211
7.85	0.1728523
7.866667	0.1574226
7.883333	0.1564461
7.9	0.1591804
7.916667	0.1552742
7.933333	0.1436531
7.95	0.1317391
7.966667	0.1280281
7.983333	0.128614
8	0.1267586
8.016667	0.1250984
8.033333	0.1290047
8.05	0.1373055
8.066667	0.1437508
8.083333	0.1460945
8.1	0.144532
8.116667	0.1415047
8.133333	0.1392586
8.15	0.1390633
8.166667	0.141407
8.183333	0.1457039
8.2	0.1517586
8.216667	0.1575203
8.233333	0.1656258
8.25	0.1804695
8.266667	0.2022469
8.283333	0.2285164
8.3	0.2534187
8.316667	0.2725593
8.333333	0.282618
8.35	0.2881843
8.366667	0.291993
8.383333	0.2927742
8.4	0.2929695
8.416667	0.2952156
8.433333	0.2933601
8.45	0.2797859
8.466667	0.2595711
8.483333	0.2427742
8.5	0.228614
8.516667	0.2133797
8.533333	0.2041023
8.55	0.2024422
8.566667	0.1998055
8.583333	0.1895515
8.6	0.1750008
8.616667	0.1616219
8.633333	0.1491219
8.65	0.1372078
8.666667	0.1293953
8.683333	0.1250984
8.7	0.1181648
8.716667	0.1079109
8.733333	0.09668045
8.75	0.08525467
8.766667	0.0771492
8.783333	0.07314529
8.8	0.06836013
8.816667	0.05664139
8.833333	0.04140701
8.85	0.03457107
8.866667	0.03798904
8.883333	0.04443436
8.9	0.04843826
8.916667	0.05419998
8.933333	0.06357498
8.95	0.0684578
8.966667	0.06367264
8.983333	0.0552742
9	0.0552742
9.016667	0.06035233
9.033333	0.05791092
9.05	0.04345779
9.066667	0.02744217
9.083333	0.01884842
9.1	0.01894608
9.116667	0.02363358
9.133333	0.0287117
9.15	0.03105545
9.166667	0.03134842
9.183333	0.02968826
9.2	0.02587967
9.216667	0.02265701
9.233333	0.02539139
9.25	0.03525467
9.266667	0.04336014
9.283333	0.04355545
9.3	0.0380867
9.316667	0.03418045
9.333333	0.03369217
9.35	0.03662186
9.366667	0.0443367
9.383333	0.05712967
9.4	0.06914139
9.416667	0.07529373
9.433333	0.07324295
9.45	0.06640701
9.466667	0.06455155
9.483333	0.07216873
9.5	0.08173905
9.516667	0.08584061
9.533333	0.0880867
9.55	0.09443436
9.566667	0.1023445
9.583333	0.1092781
9.6	0.119239
9.616667	0.141114
9.633333	0.1801765
9.65	0.2369148
9.666667	0.3242195
9.683333	0.4941414
9.7	0.851368
9.716667	1.564063
9.733333	2.901173
9.75	5.26211
9.766667	9.176173
9.783333	15.21543
9.8	23.77734
9.816667	34.77266
9.833333	47.39922
9.85	60.1836
9.866667	71.30791
9.883333	79.12755
9.9	82.67579
9.916667	81.92872
9.933333	77.67754
9.95	71.13555
9.966667	63.50977
9.983333	55.74561
10	48.46749
10.01667	42.02227
10.03333	36.53408
10.05	31.96641
10.06667	28.20332
10.08333	25.11728
10.1	22.59404
10.11667	20.52773
10.13333	18.81201
10.15	17.35117
10.16667	16.08008
10.18333	14.96201
10.2	13.9753
10.21667	13.09825
10.23333	12.29912
10.25	11.55029
10.26667	10.83955
10.28333	10.16856
10.3	9.53301
10.31667	8.91963
10.33333	8.322169
10.35	7.750099
10.36667	7.214455
10.38333	6.714942
10.4	6.235743
10.41667	5.768556
10.43333	5.324024
10.45	4.913477
10.46667	4.526563
10.48333	4.148145
10.5	3.78252
10.51667	3.444532
10.53333	3.14004
10.55	2.861817
10.56667	2.599903
10.58333	2.352442
10.6	2.121387
10.61667	1.912794
10.63333	1.72588
10.65	1.557227
10.66667	1.407813
10.68333	1.275391
10.7	1.15293
10.71667	1.030665
10.73333	0.9122078
10.75	0.8118172
10.76667	0.7363289
10.78333	0.6816414
10.8	0.6369148
10.81667	0.5947273
10.83333	0.5524422
10.85	0.5144539
10.86667	0.4822273
10.88333	0.4492195
10.9	0.413282
10.91667	0.3841805
10.93333	0.3670906
10.95	0.3561531
10.96667	0.3428718
10.98333	0.3287117
11	0.3162117
11.01667	0.3037117
11.03333	0.291993
11.05	0.2816414
11.06667	0.2716804
11.08333	0.2615242
11.1	0.2530281
11.11667	0.2453133
11.13333	0.2400398
11.15	0.2412117
11.16667	0.2449226
11.18333	0.2408211
11.2	0.2251961
11.21667	0.2059578
11.23333	0.1950203
11.25	0.1942391
11.26667	0.1982429
11.28333	0.1992195
11.3	0.1958015
11.31667	0.1909187
11.33333	0.1869148
11.35	0.1828133
11.36667	0.1753914
11.38333	0.1694344
11.4	0.1693367
11.41667	0.1743172
11.43333	0.1810555
11.45	0.1847664
11.46667	0.1881844
11.48333	0.1915047
11.5	0.191993
11.51667	0.1897469
11.53333	0.1867195
11.55	0.1834969
11.56667	0.1809578
11.58333	0.182325
11.6	0.188868
11.61667	0.1921883
11.63333	0.1860359
11.65	0.1770515
11.66667	0.1776375
11.68333	0.1862312
11.7	0.1912117
11.71667	0.188575
11.73333	0.182325
11.75	0.1775398
11.76667	0.1777351
11.78333	0.1814461
11.8	0.1873055
11.81667	0.1939461
11.83333	0.2009773
11.85	0.2087898
11.86667	0.2160164
11.88333	0.219532
11.9	0.2147469
11.91667	0.2084969
11.93333	0.2069344
11.95	0.2115242
11.96667	0.2181648
11.98333	0.2230476
12	0.2262703
12.01667	0.2303719
12.03333	0.2324226
12.05	0.2312508
12.06667	0.2298836
12.08333	0.2322273
12.1	0.2384773
12.11667	0.2437508
12.13333	0.2446297
12.15	0.2412117
12.16667	0.2397469
12.18333	0.2450203
12.2	0.253614
12.21667	0.257618
12.23333	0.257032
12.25	0.2529305
12.26667	0.2485359
12.28333	0.2474617
12.3	0.2517586
12.31667	0.26045
12.33333	0.2693367
12.35	0.2720711
12.36667	0.2647468
12.38333	0.2509773
12.4	0.2428719
12.41667	0.2440437
12.43333	0.2514656
12.45	0.2579109
12.46667	0.2620125
12.48333	0.2645516
12.5	0.2713875
12.51667	0.2799812
12.53333	0.2859383
12.55	0.2884773
12.56667	0.2915047
12.58333	0.2961922
12.6	0.2953133
12.61667	0.2838875
12.63333	0.269239
12.65	0.2658211
12.66667	0.2773445
12.68333	0.2923836
12.7	0.3020515
12.71667	0.307032
12.73333	0.3097664
12.75	0.309864
12.76667	0.3072273
12.78333	0.3056648
12.8	0.3095711
12.81667	0.3189461
12.83333	0.3304695
12.85	0.3369148
12.86667	0.3346687
12.88333	0.325489
12.9	0.3181648
12.91667	0.3208992
12.93333	0.3332039
12.95	0.3499031
12.96667	0.3602547
12.98333	0.3582039
13	0.3430672
13.01667	0.3218758
13.03333	0.3048836
13.05	0.3015633
13.06667	0.3141609
13.08333	0.3322273
13.1	0.3469734
13.11667	0.3522469
13.13333	0.3525398
13.15	0.353614
13.16667	0.3590828
13.18333	0.3667976
13.2	0.3732429
13.21667	0.3747078
13.23333	0.3706062
13.25	0.3660164
13.26667	0.369825
13.28333	0.3821297
13.3	0.3910164
13.31667	0.3897468
13.33333	0.3877937
13.35	0.3935555
13.36667	0.403614
13.38333	0.4120125
13.4	0.4203133
13.41667	0.4292976
13.43333	0.4315437
13.45	0.4245125
13.46667	0.4146492
13.48333	0.4114265
13.5	0.4191414
13.51667	0.4355476
13.53333	0.450782
13.55	0.4580086
13.56667	0.4580086
13.58333	0.4551765
13.6	0.4496101
13.61667	0.4450203
13.63333	0.448243
13.65	0.4584969
13.66667	0.4685555
13.68333	0.4713875
13.7	0.4705086
13.71667	0.4710945
13.73333	0.4716805
13.75	0.4708992
13.76667	0.4674812
13.78333	0.4625984
13.8	0.4579109
13.81667	0.4585945
13.83333	0.4677742
13.85	0.4755867
13.86667	0.4712898
13.88333	0.4585945
13.9	0.4513679
13.91667	0.4566414
13.93333	0.4693367
13.95	0.4759773
13.96667	0.4703133
13.98333	0.4568367
14	0.4457039
14.01667	0.4433601
14.03333	0.4540047
14.05	0.4796883
14.06667	0.5115242
14.08333	0.5330086
14.1	0.5298836
14.11667	0.5106453
14.13333	0.4935555
14.15	0.4875984
14.16667	0.4899422
14.18333	0.4975594
14.2	0.5079109
14.21667	0.513868
14.23333	0.5170906
14.25	0.5225593
14.26667	0.5267586
14.28333	0.5242195
14.3	0.5200203
14.31667	0.522364
14.33333	0.5313484
14.35	0.5397469
14.36667	0.544825
14.38333	0.5500008
14.4	0.5579109
14.41667	0.5630867
14.43333	0.5617195
14.45	0.5575203
14.46667	0.5558602
14.48333	0.5578133
14.5	0.5611336
14.51667	0.5670906
14.53333	0.5791023
14.55	0.5959969
14.56667	0.61045
14.58333	0.6155281
14.6	0.6124031
14.61667	0.6092781
14.63333	0.6080086
14.65	0.6049812
14.66667	0.5983406
14.68333	0.5962898
14.7	0.6075203
14.71667	0.6264656
14.73333	0.637989
14.75	0.6333016
14.76667	0.6251961
14.78333	0.6250984
14.8	0.6315438
14.81667	0.6371101
14.83333	0.6384773
14.85	0.6390632
14.86667	0.6410164
14.88333	0.6421883
14.9	0.6389656
14.91667	0.6319343
14.93333	0.6277351
14.95	0.6296883
14.96667	0.6356453
14.98333	0.6406258
15	0.6407234
15.01667	0.6369148
15.03333	0.6367195
15.05	0.6438484
15.06667	0.6533211
15.08333	0.6550789
15.1	0.651368
15.11667	0.6492195
15.13333	0.6512703
15.15	0.6556648
15.16667	0.6618172
15.18333	0.6667
15.2	0.6690437
15.21667	0.6752937
15.23333	0.6866218
15.25	0.6944343
15.26667	0.6956062
15.28333	0.697364
15.3	0.7030281
15.31667	0.7082039
15.33333	0.7121102
15.35	0.7155281
15.36667	0.7157234
15.38333	0.7103523
15.4	0.7038094
15.41667	0.7014656
15.43333	0.7052742
15.45	0.7148445
15.46667	0.7244148
15.48333	0.7272469
15.5	0.728614
15.51667	0.7344734
15.53333	0.7427742
15.55	0.7500984
15.56667	0.7551765
15.58333	0.757032
15.6	0.7542
15.61667	0.7506844
15.63333	0.7505867
15.65	0.7500984
15.66667	0.748243
15.68333	0.7490242
15.7	0.7535164
15.71667	0.7583992
15.73333	0.7591804
15.75	0.7569343
15.76667	0.7587898
15.78333	0.7700203
15.8	0.7836922
15.81667	0.7896492
15.83333	0.7860359
15.85	0.7830086
15.86667	0.7846687
15.88333	0.7833992
15.9	0.7746102
15.91667	0.7711922
15.93333	0.7834969
15.95	0.8024422
15.96667	0.8102547
15.98333	0.8034188
16	0.7970711
16.01667	0.8027351
16.03333	0.8138679
16.05	0.8196297
16.06667	0.8175789
16.08333	0.8114265
16.1	0.8061531
16.11667	0.8061531
16.13333	0.8096687
16.15	0.8095711
16.16667	0.8023445
16.18333	0.7961922
16.2	0.7968758
16.21667	0.8021492
16.23333	0.8069344
16.25	0.809864
16.26667	0.8141609
16.28333	0.8189461
16.3	0.8211921
16.31667	0.822364
16.33333	0.8287117
16.35	0.8381844
16.36667	0.8439461
16.38333	0.8412117
16.4	0.841407
16.41667	0.8467781
16.43333	0.8500007
16.45	0.8474617
16.46667	0.8421882
16.48333	0.8410164
16.5	0.8454109
16.51667	0.8551766
16.53333	0.8699226
16.55	0.8856453
16.56667	0.8929695
16.58333	0.8844734
16.6	0.8685554
16.61667	0.8572273
16.63333	0.8543953
16.65	0.857032
16.66667	0.8630867
16.68333	0.8721687
16.7	0.8791023
16.71667	0.8818367
16.73333	0.8861336
16.75	0.8961922
16.76667	0.9076179
16.78333	0.9153328
16.8	0.9163094
16.81667	0.9090828
16.83333	0.8955086
16.85	0.882325
16.86667	0.8799812
16.88333	0.8864266
16.9	0.8922859
16.91667	0.8955086
16.93333	0.8970711
16.95	0.8969734
16.96667	0.8951179
16.98333	0.894532
17	0.8970711
17.01667	0.9026375
17.03333	0.9120125
17.05	0.9261726
17.06667	0.9378914
17.08333	0.9387703
17.1	0.932032
17.11667	0.9270515
17.13333	0.9339851
17.15	0.9455086
17.16667	0.9529305
17.18333	0.9514656
17.2	0.9443367
17.21667	0.9399422
17.23333	0.9410164
17.25	0.9437507
17.26667	0.9447273
17.28333	0.9458016
17.3	0.9493172
17.31667	0.951075
17.33333	0.9496101
17.35	0.9491218
17.36667	0.9548836
17.38333	0.9642586
17.4	0.9734383
17.41667	0.9811531
17.43333	0.9881843
17.45	0.9920906
17.46667	0.9929695
17.48333	0.9946297
17.5	0.9971687
17.51667	0.9978523
17.53333	0.9991218
17.55	1.005079
17.56667	1.014356
17.58333	1.017969
17.6	1.011719
17.61667	1.003614
17.63333	1.006251
17.65	1.022559
17.66667	1.040821
17.68333	1.04795
17.7	1.042677
17.71667	1.035255
17.73333	1.033985
17.75	1.037012
17.76667	1.039845
17.78333	1.040723
17.8	1.038282
17.81667	1.032911
17.83333	1.027442
17.85	1.026759
17.86667	1.028712
17.88333	1.030372
17.9	1.034473
17.91667	1.044825
17.93333	1.057423
17.95	1.062989
17.96667	1.063184
17.98333	1.060548
18	1.057325
18.01667	1.054395
18.03333	1.053516
18.05	1.053321
18.06667	1.051075
18.08333	1.054493
18.1	1.060938
18.11667	1.062501
18.13333	1.058302
18.15	1.058497
18.16667	1.06797
18.18333	1.081934
18.2	1.090919
18.21667	1.090528
18.23333	1.08711
18.25	1.092579
18.26667	1.106641
18.28333	1.113282
18.3	1.109864
18.31667	1.106251
18.33333	1.106446
18.35	1.105665
18.36667	1.102833
18.38333	1.103419
18.4	1.109962
18.41667	1.118751
18.43333	1.124805
18.45	1.122657
18.46667	1.116309
18.48333	1.117286
18.5	1.129591
18.51667	1.14336
18.53333	1.143165
18.55	1.13047
18.56667	1.120997
18.58333	1.123731
18.6	1.133888
18.61667	1.140723
18.63333	1.142872
18.65	1.14629
18.66667	1.151759
18.68333	1.158204
18.7	1.166407
18.71667	1.173536
18.73333	1.175294
18.75	1.172755
18.76667	1.17002
18.78333	1.166407
18.8	1.160841
18.81667	1.158009
18.83333	1.163673
18.85	1.176075
18.86667	1.188087
18.88333	1.190821
18.9	1.183399
18.91667	1.17461
18.93333	1.176856
18.95	1.186329
18.96667	1.193555
18.98333	1.197169
19	1.200684
19.01667	1.205469
19.03333	1.212696
19.05	1.221094
19.06667	1.225001
19.08333	1.223243
19.1	1.219923
19.11667	1.220606
19.13333	1.226368
19.15	1.233595
19.16667	1.236719
19.18333	1.236427
19.2	1.238477
19.21667	1.242774
19.23333	1.245313
19.25	1.246192
19.26667	1.247559
19.28333	1.249122
19.3	1.24961
19.31667	1.246778
19.33333	1.2417
19.35	1.237013
19.36667	1.236329
19.38333	1.239552
19.4	1.24297
19.41667	1.243458
19.43333	1.2417
19.45	1.240821
19.46667	1.243067
19.48333	1.244923
19.5	1.243653
19.51667	1.245411
19.53333	1.256153
19.55	1.27295
19.56667	1.283497
19.58333	1.281641
19.6	1.273243
19.61667	1.268555
19.63333	1.273048
19.65	1.280958
19.66667	1.280665
19.68333	1.270899
19.7	1.259278
19.71667	1.258301
19.73333	1.265528
19.75	1.270704
19.76667	1.273145
19.78333	1.281544
19.8	1.297559
19.81667	1.309766
19.83333	1.310352
19.85	1.306934
19.86667	1.308497
19.88333	1.314942
19.9	1.32002
19.91667	1.322462
19.93333	1.326368
19.95	1.331837
19.96667	1.334083
19.98333	1.329591
20	1.322462
20.01667	1.320216
20.03333	1.328614
20.05	1.340333
20.06667	1.345313
20.08333	1.337403
20.1	1.328809
20.11667	1.328614
20.13333	1.334864
20.15	1.340137
20.16667	1.346583
20.18333	1.357032
20.2	1.367384
20.21667	1.368848
20.23333	1.363087
20.25	1.358204
20.26667	1.353712
20.28333	1.34922
20.3	1.347559
20.31667	1.350391
20.33333	1.356739
20.35	1.363575
20.36667	1.367579
20.38333	1.36797
20.4	1.367091
20.41667	1.368751
20.43333	1.371973
20.45	1.372852
20.46667	1.369727
20.48333	1.364845
20.5	1.3667
20.51667	1.37793
20.53333	1.3917
20.55	1.399805
20.56667	1.405665
20.58333	1.413477
20.6	1.424219
20.61667	1.432716
20.63333	1.429395
20.65	1.417188
20.66667	1.406934
20.68333	1.40547
20.7	1.406348
20.71667	1.403223
20.73333	1.404591
20.75	1.416309
20.76667	1.433985
20.78333	1.443458
20.8	1.443555
20.81667	1.443067
20.83333	1.446485
20.85	1.447852
20.86667	1.446485
20.88333	1.447071
20.9	1.450684
20.91667	1.454688
20.93333	1.460938
20.95	1.470704
20.96667	1.47461
20.98333	1.467188
21	1.45254
21.01667	1.436524
21.03333	1.426856
21.05	1.431739
21.06667	1.450587
21.08333	1.477735
21.1	1.500196
21.11667	1.508301
21.13333	1.500098
21.15	1.487891
21.16667	1.483595
21.18333	1.488868
21.2	1.498048
21.21667	1.503907
21.23333	1.503419
21.25	1.498927
21.26667	1.495606
21.28333	1.497169
21.3	1.50254
21.31667	1.505567
21.33333	1.504981
21.35	1.503907
21.36667	1.506739
21.38333	1.514356
21.4	1.521778
21.41667	1.529395
21.43333	1.535645
21.45	1.537501
21.46667	1.534571
21.48333	1.527637
21.5	1.522071
21.51667	1.522266
21.53333	1.525977
21.55	1.525684
21.56667	1.517091
21.58333	1.506739
21.6	1.502149
21.61667	1.501759
21.63333	1.501759
21.65	1.502735
21.66667	1.507032
21.68333	1.512501
21.7	1.518458
21.71667	1.528028
21.73333	1.541016
21.75	1.553419
21.76667	1.559962
21.78333	1.561231
21.8	1.55918
21.81667	1.557227
21.83333	1.556837
21.85	1.558106
21.86667	1.559962
21.88333	1.560645
21.9	1.559766
21.91667	1.558985
21.93333	1.562989
21.95	1.570313
21.96667	1.572755
21.98333	1.569825
22	1.571485
22.01667	1.58213
22.03333	1.592774
22.05	1.595997
22.06667	1.597071
22.08333	1.603126
22.1	1.611915
22.11667	1.623438
22.13333	1.635255
22.15	1.639942
22.16667	1.635255
22.18333	1.62588
22.2	1.619532
22.21667	1.617091
22.23333	1.614454
22.25	1.609083
22.26667	1.604298
22.28333	1.606055
22.3	1.612989
22.31667	1.620997
22.33333	1.629786
22.35	1.638673
22.36667	1.639552
22.38333	1.63047
22.4	1.623536
22.41667	1.62754
22.43333	1.640333
22.45	1.649903
22.46667	1.64961
22.48333	1.645606
22.5	1.648145
22.51667	1.661134
22.53333	1.677149
22.55	1.684962
22.56667	1.682032
22.58333	1.676368
22.6	1.678028
22.61667	1.684376
22.63333	1.685157
22.65	1.6792
22.66667	1.675684
22.68333	1.682423
22.7	1.690528
22.71667	1.695606
22.73333	1.699219
22.75	1.701563
22.76667	1.696973
22.78333	1.686524
22.8	1.684669
22.81667	1.699024
22.83333	1.7167
22.85	1.722071
22.86667	1.718262
22.88333	1.717872
22.9	1.72461
22.91667	1.734376
22.93333	1.745411
22.95	1.754688
22.96667	1.758985
22.98333	1.756739
23	1.750782
23.01667	1.745118
23.03333	1.742091
23.05	1.742774
23.06667	1.746094
23.08333	1.748731
23.1	1.747755
23.11667	1.744532
23.13333	1.74297
23.15	1.746485
23.16667	1.752149
23.18333	1.755177
23.2	1.752638
23.21667	1.747266
23.23333	1.744923
23.25	1.746778
23.26667	1.748829
23.28333	1.748341
23.3	1.747071
23.31667	1.747657
23.33333	1.751075
23.35	1.757032
23.36667	1.766114
23.38333	1.77295
23.4	1.777344
23.41667	1.781251
23.43333	1.786817
23.45	1.793262
23.46667	1.797266
23.48333	1.79668
23.5	1.792384
23.51667	1.791407
23.53333	1.79463
23.55	1.798243
23.56667	1.80127
23.58333	1.805372
23.6	1.806739
23.61667	1.80586
23.63333	1.804786
23.65	1.800977
23.66667	1.796387
23.68333	1.796095
23.7	1.801954
23.71667	1.808399
23.73333	1.815919
23.75	1.828419
23.76667	1.84043
23.78333	1.845997
23.8	1.842384
23.81667	1.835841
23.83333	1.829298
23.85	1.825294
23.86667	1.82754
23.88333	1.837891
23.9	1.8542
23.91667	1.865333
23.93333	1.864942
23.95	1.853223
23.96667	1.837501
23.98333	1.832618
24	1.842188
24.01667	1.85254
24.03333	1.849317
24.05	1.837501
24.06667	1.831153
24.08333	1.832618
24.1	1.837305
24.11667	1.844434
24.13333	1.851368
24.15	1.854005
24.16667	1.849317
24.18333	1.837794
24.2	1.829688
24.21667	1.831739
24.23333	1.845606
24.25	1.86211
24.26667	1.871387
24.28333	1.872169
24.3	1.869727
24.31667	1.867872
24.33333	1.866407
24.35	1.864942
24.36667	1.865235
24.38333	1.86797
24.4	1.871094
24.41667	1.873145
24.43333	1.874805
24.45	1.87627
24.46667	1.876661
24.48333	1.876173
24.5	1.876368
24.51667	1.879005
24.53333	1.880177
24.55	1.878712
24.56667	1.876173
24.58333	1.874903
24.6	1.875489
24.61667	1.879493
24.63333	1.886231
24.65	1.891602
24.66667	1.89668
24.68333	1.90752
24.7	1.921973
24.71667	1.93379
24.73333	1.935059
24.75	1.92754
24.76667	1.921973
24.78333	1.928028
24.8	1.942481
24.81667	1.955567
24.83333	1.959278
24.85	1.954298
24.86667	1.949024
24.88333	1.951954
24.9	1.962989
24.91667	1.974122
24.93333	1.978712
24.95	1.978809
24.96667	1.975196
24.98333	1.969044
25	1.961524
25.01667	1.956153
25.03333	1.956446
25.05	1.962305
25.06667	1.968458
25.08333	1.967872
25.1	1.963282
25.11667	1.963575
25.13333	1.969434
25.15	1.974317
25.16667	1.971485
25.18333	1.965528
25.2	1.962696
25.21667	1.962989
25.23333	1.9667
25.25	1.97295
25.26667	1.974317
25.28333	1.966309
25.3	1.959278
25.31667	1.964747
25.33333	1.981446
25.35	1.998927
25.36667	2.010645
25.38333	2.014454
25.4	2.013575
25.41667	2.014649
25.43333	2.019923
25.45	2.026954
25.46667	2.034766
25.48333	2.044044
25.5	2.053419
25.51667	2.058887
25.53333	2.05752
25.55	2.050098
25.56667	2.041212
25.58333	2.03711
25.6	2.039356
25.61667	2.042481
25.63333	2.043262
25.65	2.044337
25.66667	2.052052
25.68333	2.064845
25.7	2.073634
25.71667	2.07461
25.73333	2.066798
25.75	2.057911
25.76667	2.056446
25.78333	2.06211
25.8	2.066993
25.81667	2.068067
25.83333	2.069239
25.85	2.071583
25.86667	2.067677
25.88333	2.056348
25.9	2.045704
25.91667	2.046778
25.93333	2.058301
25.95	2.068067
25.96667	2.07129
25.98333	2.072266
26	2.075001
26.01667	2.079884
26.03333	2.085255
26.05	2.087794
26.06667	2.081641
26.08333	2.064454
26.1	2.045509
26.11667	2.037989
26.13333	2.043946
26.15	2.057227
26.16667	2.071485
26.18333	2.086817
26.2	2.100489
26.21667	2.103321
26.23333	2.096876
26.25	2.090919
26.26667	2.0917
26.28333	2.095313
26.3	2.093067
26.31667	2.091798
26.33333	2.098438
26.35	2.112598
26.36667	2.13086
26.38333	2.142481
26.4	2.138087
26.41667	2.120411
26.43333	2.098243
26.45	2.079981
26.46667	2.075294
26.48333	2.083888
26.5	2.101954
26.51667	2.123634
26.53333	2.145313
26.55	2.156153
26.56667	2.152833
26.58333	2.144239
26.6	2.140723
26.61667	2.138966
26.63333	2.133301
26.65	2.126466
26.66667	2.123048
26.68333	2.125977
26.7	2.133595
26.71667	2.139356
26.73333	2.135548
26.75	2.126075
26.76667	2.122071
26.78333	2.127637
26.8	2.143165
26.81667	2.15879
26.83333	2.166407
26.85	2.163673
26.86667	2.159473
26.88333	2.163966
26.9	2.17422
26.91667	2.181348
26.93333	2.181544
26.95	2.179102
26.96667	2.177052
26.98333	2.175782
27	2.172852
27.01667	2.167286
27.03333	2.161915
27.05	2.158302
27.06667	2.154591
27.08333	2.154102
27.1	2.161915
27.11667	2.174317
27.13333	2.176368
27.15	2.165626
27.16667	2.154102
27.18333	2.155177
27.2	2.171094
27.21667	2.192286
27.23333	2.204688
27.25	2.204005
27.26667	2.196192
27.28333	2.19043
27.3	2.190528
27.31667	2.19297
27.33333	2.192677
27.35	2.192579
27.36667	2.198438
27.38333	2.209278
27.4	2.22129
27.41667	2.228712
27.43333	2.231349
27.45	2.233009
27.46667	2.238868
27.48333	2.249415
27.5	2.255177
27.51667	2.249708
27.53333	2.236134
27.55	2.22422
27.56667	2.222266
27.58333	2.227931
27.6	2.235548
27.61667	2.243556
27.63333	2.252637
27.65	2.262599
27.66667	2.267579
27.68333	2.26504
27.7	2.254298
27.71667	2.240333
27.73333	2.229005
27.75	2.22422
27.76667	2.224903
27.78333	2.22754
27.8	2.229786
27.81667	2.232911
27.83333	2.241016
27.85	2.255958
27.86667	2.272657
27.88333	2.283692
27.9	2.286817
27.91667	2.285938
27.93333	2.285645
27.95	2.289161
27.96667	2.294434
27.98333	2.298927
28	2.299317
28.01667	2.298048
28.03333	2.299024
28.05	2.305176
28.06667	2.311427
28.08333	2.31338
28.1	2.307618
28.11667	2.297071
28.13333	2.290431
28.15	2.290821
28.16667	2.293751
28.18333	2.298341
28.2	2.30547
28.21667	2.31338
28.23333	2.32129
28.25	2.32588
28.26667	2.323634
28.28333	2.319239
28.3	2.321876
28.31667	2.330274
28.33333	2.333888
28.35	2.328809
28.36667	2.324415
28.38333	2.329005
28.4	2.343653
28.41667	2.360841
28.43333	2.366895
28.45	2.35586
28.46667	2.333204
28.48333	2.317677
28.5	2.319532
28.51667	2.335841
28.53333	2.353614
28.55	2.360255
28.56667	2.358887
28.58333	2.35918
28.6	2.365723
28.61667	2.373731
28.63333	2.379884
28.65	2.381348
28.66667	2.376466
28.68333	2.370509
28.7	2.373048
28.71667	2.381055
28.73333	2.388184
28.75	2.393262
28.76667	2.396485
28.78333	2.391993
28.8	2.380372
28.81667	2.374024
28.83333	2.372657
28.85	2.37129
28.86667	2.374512
28.88333	2.38838
28.9	2.404786
28.91667	2.412403
28.93333	2.408985
28.95	2.395802
28.96667	2.382618
28.98333	2.383008
29	2.394044
29.01667	2.406153
29.03333	2.416309
29.05	2.42793
29.06667	2.434864
29.08333	2.43252
29.1	2.424805
29.11667	2.417774
29.13333	2.414063
29.15	2.414454
29.16667	2.419825
29.18333	2.426466
29.2	2.427833
29.21667	2.42129
29.23333	2.414649
29.25	2.414161
29.26667	2.420411
29.28333	2.428516
29.3	2.43213
29.31667	2.43418
29.33333	2.441309
29.35	2.451075
29.36667	2.448926
29.38333	2.431934
29.4	2.417481
29.41667	2.422462
29.43333	2.442677
29.45	2.46377
29.46667	2.477149
29.48333	2.4792
29.5	2.47295
29.51667	2.466309
29.53333	2.466505
29.55	2.470313
29.56667	2.467481
29.58333	2.461524
29.6	2.461133
29.61667	2.47002
29.63333	2.480958
29.65	2.48672
29.66667	2.487989
29.68333	2.48877
29.7	2.488868
29.71667	2.48672
29.73333	2.487598
29.75	2.495801
29.76667	2.505665
29.78333	2.505665
29.8	2.497852
29.81667	2.495118
29.83333	2.499122
29.85	2.503907
29.86667	2.505274
29.88333	2.505665
29.9	2.505958
29.91667	2.50879
29.93333	2.517872
29.95	2.528516
29.96667	2.536427
29.98333	2.543849
30	2.551563
30.01667	2.553419
30.03333	2.54629
30.05	2.540138
30.06667	2.53877
30.08333	2.539845
30.1	2.539649
30.11667	2.540138
30.13333	2.54463
30.15	2.549708
30.16667	2.550977
30.18333	2.551759
30.2	2.55918
30.21667	2.568653
30.23333	2.570118
30.25	2.563575
30.26667	2.556056
30.28333	2.552833
30.3	2.558204
30.31667	2.571388
30.33333	2.585743
30.35	2.591016
30.36667	2.588575
30.38333	2.588184
30.4	2.592872
30.41667	2.598634
30.43333	2.599903
30.45	2.598634
30.46667	2.598438
30.48333	2.597364
30.5	2.591993
30.51667	2.584962
30.53333	2.583302
30.55	2.590528
30.56667	2.605274
30.58333	2.619923
30.6	2.626075
30.61667	2.618067
30.63333	2.607032
30.65	2.603516
30.66667	2.607227
30.68333	2.614552
30.7	2.625391
30.71667	2.634669
30.73333	2.63379
30.75	2.625098
30.76667	2.621387
30.78333	2.626954
30.8	2.638087
30.81667	2.646876
30.83333	2.647462
30.85	2.640821
30.86667	2.631934
30.88333	2.629005
30.9	2.63213
30.91667	2.637012
30.93333	2.639552
30.95	2.642481
30.96667	2.647364
30.98333	2.653516
31	2.657227
31.01667	2.656153
31.03333	2.654102
31.05	2.656837
31.06667	2.662501
31.08333	2.664942
31.1	2.666993
31.11667	2.675782
31.13333	2.687598
31.15	2.691505
31.16667	2.68252
31.18333	2.665528
31.2	2.657423
31.21667	2.667676
31.23333	2.687891
31.25	2.700489
31.26667	2.70293
31.28333	2.701954
31.3	2.699415
31.31667	2.694044
31.33333	2.687501
31.35	2.682911
31.36667	2.679298
31.38333	2.67793
31.4	2.685645
31.41667	2.700196
31.43333	2.715919
31.45	2.725196
31.46667	2.725294
31.48333	2.717286
31.5	2.705762
31.51667	2.696095
31.53333	2.689747
31.55	2.687891
31.56667	2.692481
31.58333	2.700099
31.6	2.707032
31.61667	2.713087
31.63333	2.720704
31.65	2.727149
31.66667	2.727442
31.68333	2.723927
31.7	2.72461
31.71667	2.731544
31.73333	2.73711
31.75	2.736817
31.76667	2.737305
31.78333	2.742579
31.8	2.747364
31.81667	2.743848
31.83333	2.736622
31.85	2.735645
31.86667	2.744923
31.88333	2.75752
31.9	2.76797
31.91667	2.773048
31.93333	2.772559
31.95	2.769825
31.96667	2.769337
31.98333	2.768848
32	2.766602
32.01667	2.763673
32.03333	2.76045
32.05	2.756641
32.06667	2.7542
32.08333	2.757716
32.1	2.770899
32.11667	2.786329
32.13333	2.793946
32.15	2.788575
32.16667	2.782032
32.18333	2.784376
32.2	2.792091
32.21667	2.798145
32.23333	2.800587
32.25	2.798927
32.26667	2.79795
32.28333	2.804688
32.3	2.817286
32.31667	2.828809
32.33333	2.832618
32.35	2.829981
32.36667	2.825977
32.38333	2.827637
32.4	2.83252
32.41667	2.834473
32.43333	2.834766
32.45	2.842677
32.46667	2.854493
32.48333	2.856544
32.5	2.847462
32.51667	2.83838
32.53333	2.842774
32.55	2.859278
32.56667	2.874415
32.58333	2.874219
32.6	2.860352
32.61667	2.844825
32.63333	2.837208
32.65	2.839356
32.66667	2.848243
32.68333	2.858692
32.7	2.866798
32.71667	2.872169
32.73333	2.874024
32.75	2.871094
32.76667	2.868946
32.78333	2.872755
32.8	2.877345
32.81667	2.873145
32.83333	2.860255
32.85	2.849513
32.86667	2.843555
32.88333	2.840137
32.9	2.842091
32.91667	2.85713
32.93333	2.877735
32.95	2.89043
32.96667	2.892677
32.98333	2.898829
33	2.908595
33.01667	2.906837
33.03333	2.892579
33.05	2.883399
33.06667	2.892579
33.08333	2.908106
33.1	2.919825
33.11667	2.923438
33.13333	2.919239
33.15	2.912013
33.16667	2.909669
33.18333	2.914551
33.2	2.921876
33.21667	2.93086
33.23333	2.939454
33.25	2.942384
33.26667	2.939259
33.28333	2.939845
33.3	2.950782
33.31667	2.964747
33.33333	2.970509
33.35	2.967481
33.36667	2.963282
33.38333	2.963673
33.4	2.968946
33.41667	2.974415
33.43333	2.9792
33.45	2.983985
33.46667	2.985352
33.48333	2.977735
33.5	2.963184
33.51667	2.955762
33.53333	2.96543
33.55	2.987012
33.56667	3.006153
33.58333	3.01338
33.6	3.009083
33.61667	3.00127
33.63333	2.995997
33.65	2.996583
33.66667	3.000294
33.68333	3.000098
33.7	2.997071
33.71667	2.996974
33.73333	2.996485
33.75	2.99502
33.76667	2.995704
33.78333	3.000782
33.8	3.004493
33.81667	3.002149
33.83333	2.999024
33.85	2.998634
33.86667	2.998829
33.88333	2.998927
33.9	3.001173
33.91667	3.006251
33.93333	3.012501
33.95	3.017384
33.96667	3.020997
33.98333	3.018165
34	3.007032
34.01667	2.994923
34.03333	2.992091
34.05	2.998731
34.06667	3.004884
34.08333	3.003223
34.1	3.000782
34.11667	3.004884
34.13333	3.014356
34.15	3.022266
34.16667	3.028614
34.18333	3.034962
34.2	3.041602
34.21667	3.045997
34.23333	3.047071
34.25	3.043849
34.26667	3.044434
34.28333	3.056739
34.3	3.073438
34.31667	3.079884
34.33333	3.072071
34.35	3.061427
34.36667	3.059864
34.38333	3.067481
34.4	3.074805
34.41667	3.075977
34.43333	3.069434
34.45	3.059962
34.46667	3.055763
34.48333	3.06338
34.5	3.077442
34.51667	3.083888
34.53333	3.076173
34.55	3.062989
34.56667	3.059376
34.58333	3.069239
34.6	3.084571
34.61667	3.097462
34.63333	3.101954
34.65	3.100098
34.66667	3.093067
34.68333	3.088575
34.7	3.091993
34.71667	3.10254
34.73333	3.112794
34.75	3.119727
34.76667	3.122657
34.78333	3.123927
34.8	3.125294
34.81667	3.1292
34.83333	3.138966
34.85	3.151954
34.86667	3.159864
34.88333	3.155469
34.9	3.140235
34.91667	3.124903
34.93333	3.119532
34.95	3.126466
34.96667	3.141212
34.98333	3.153419
35	3.158595
35.01667	3.15918
35.03333	3.153907
35.05	3.139747
35.06667	3.120704
35.08333	3.108106
35.1	3.108009
35.11667	3.118556
35.13333	3.135841
35.15	3.153419
35.16667	3.164551
35.18333	3.170118
35.2	3.175098
35.21667	3.180176
35.23333	3.181641
35.25	3.175782
35.26667	3.164454
35.28333	3.152833
35.3	3.148341
35.31667	3.14961
35.33333	3.150587
35.35	3.149708
35.36667	3.152051
35.38333	3.158204
35.4	3.160548
35.41667	3.155762
35.43333	3.150684
35.45	3.152051
35.46667	3.157911
35.48333	3.164551
35.5	3.169923
35.51667	3.17588
35.53333	3.182813
35.55	3.185938
35.56667	3.182032
35.58333	3.174317
35.6	3.174708
35.61667	3.186622
35.63333	3.205079
35.65	3.223927
35.66667	3.233985
35.68333	3.234376
35.7	3.232032
35.71667	3.231544
35.73333	3.230469
35.75	3.22422
35.76667	3.21377
35.78333	3.208985
35.8	3.212794
35.81667	3.223341
35.83333	3.233009
35.85	3.23877
35.86667	3.239552
35.88333	3.239747
35.9	3.242091
35.91667	3.242481
35.93333	3.234962
35.95	3.225391
35.96667	3.224024
35.98333	3.233985
36	3.24795
36.01667	3.2542
36.03333	3.247462
36.05	3.238575
36.06667	3.239356
36.08333	3.24668
36.1	3.248048
36.11667	3.241993
36.13333	3.237501
36.15	3.237208
36.16667	3.236524
36.18333	3.234278
36.2	3.23711
36.21667	3.248731
36.23333	3.263575
36.25	3.271388
36.26667	3.27422
36.28333	3.280177
36.3	3.29336
36.31667	3.308692
36.33333	3.312305
36.35	3.302735
36.36667	3.292774
36.38333	3.291505
36.4	3.2917
36.41667	3.287305
36.43333	3.286036
36.45	3.297755
36.46667	3.315821
36.48333	3.325099
36.5	3.318653
36.51667	3.301759
36.53333	3.290431
36.55	3.295606
36.56667	3.316407
36.58333	3.334766
36.6	3.335743
36.61667	3.322071
36.63333	3.309766
36.65	3.309474
36.66667	3.3167
36.68333	3.321192
36.7	3.319532
36.71667	3.317481
36.73333	3.323341
36.75	3.34043
36.76667	3.359669
36.78333	3.368751
36.8	3.36836
36.81667	3.363575
36.83333	3.357325
36.85	3.349024
36.86667	3.341114
36.88333	3.34004
36.9	3.344337
36.91667	3.350977
36.93333	3.357227
36.95	3.365138
36.96667	3.375587
36.98333	3.385938
37	3.385255
37.01667	3.372071
37.03333	3.360743
37.05	3.362989
37.06667	3.374708
37.08333	3.382618
37.1	3.379395
37.11667	3.37129
37.13333	3.364454
37.15	3.363282
37.16667	3.365821
37.18333	3.370216
37.2	3.377442
37.21667	3.389454
37.23333	3.401563
37.25	3.408887
37.26667	3.40918
37.28333	3.406446
37.3	3.409962
37.31667	3.422852
37.33333	3.433204
37.35	3.4292
37.36667	3.419434
37.38333	3.421876
37.4	3.439259
37.41667	3.45713
37.43333	3.463087
37.45	3.458106
37.46667	3.45254
37.48333	3.453907
37.5	3.461133
37.51667	3.464161
37.53333	3.45547
37.55	3.438868
37.56667	3.43086
37.58333	3.444239
37.6	3.470899
37.61667	3.491309
37.63333	3.494923
37.65	3.486817
37.66667	3.481934
37.68333	3.486231
37.7	3.494044
37.71667	3.495118
37.73333	3.490723
37.75	3.48838
37.76667	3.493165
37.78333	3.502247
37.8	3.50879
37.81667	3.512208
37.83333	3.512794
37.85	3.512989
37.86667	3.512891
37.88333	3.517481
37.9	3.525977
37.91667	3.530274
37.93333	3.526661
37.95	3.522559
37.96667	3.521388
37.98333	3.518848
38	3.51211
38.01667	3.506739
38.03333	3.509571
38.05	3.520704
38.06667	3.534376
38.08333	3.543165
38.1	3.54463
38.11667	3.5417
38.13333	3.5417
38.15	3.545509
38.16667	3.546094
38.18333	3.542188
38.2	3.542384
38.21667	3.553223
38.23333	3.570216
38.25	3.585059
38.26667	3.595216
38.28333	3.593165
38.3	3.578712
38.31667	3.567091
38.33333	3.56836
38.35	3.577833
38.36667	3.581641
38.38333	3.579786
38.4	3.582716
38.41667	3.593653
38.43333	3.601954
38.45	3.595802
38.46667	3.579102
38.48333	3.565626
38.5	3.562794
38.51667	3.567774
38.53333	3.576075
38.55	3.583497
38.56667	3.587989
38.58333	3.588282
38.6	3.587013
38.61667	3.59004
38.63333	3.600782
38.65	3.614552
38.66667	3.626856
38.68333	3.631251
38.7	3.625196
38.71667	3.615528
38.73333	3.612501
38.75	3.617188
38.76667	3.617676
38.78333	3.606837
38.8	3.592481
38.81667	3.592969
38.83333	3.609083
38.85	3.623731
38.86667	3.624903
38.88333	3.618165
38.9	3.619141
38.91667	3.63086
38.93333	3.641309
38.95	3.640528
38.96667	3.634766
38.98333	3.633204
39	3.636915
39.01667	3.641602
39.03333	3.646876
39.05	3.6542
39.06667	3.662794
39.08333	3.674024
39.1	3.686427
39.11667	3.694825
39.13333	3.697657
39.15	3.698926
39.16667	3.70713
39.18333	3.726466
39.2	3.752247
39.21667	3.777442
39.23333	3.796094
39.25	3.808009
39.26667	3.815919
39.28333	3.826173
39.3	3.844532
39.31667	3.872852
39.33333	3.908985
39.35	3.942677
39.36667	3.964454
39.38333	3.975001
39.4	3.981251
39.41667	3.994434
39.43333	4.021388
39.45	4.057325
39.46667	4.09131
39.48333	4.121095
39.5	4.150001
39.51667	4.182227
39.53333	4.216895
39.55	4.250098
39.56667	4.284083
39.58333	4.323634
39.6	4.363477
39.61667	4.393165
39.63333	4.41377
39.65	4.439356
39.66667	4.476075
39.68333	4.51504
39.7	4.546973
39.71667	4.574708
39.73333	4.607032
39.75	4.648438
39.76667	4.69336
39.78333	4.736426
39.8	4.777051
39.81667	4.816798
39.83333	4.853907
39.85	4.888673
39.86667	4.926075
39.88333	4.969434
39.9	5.014454
39.91667	5.054981
39.93333	5.087989
39.95	5.119727
39.96667	5.157716
39.98333	5.204591
40	5.252931
40.01667	5.294727
40.03333	5.332129
40.05	5.369239
40.06667	5.404005
40.08333	5.431837
40.1	5.459474
40.11667	5.497657
40.13333	5.542188
40.15	5.585352
40.16667	5.625001
40.18333	5.667481
40.2	5.714454
40.21667	5.759864
40.23333	5.800489
40.25	5.837989
40.26667	5.878126
40.28333	5.92793
40.3	5.983594
40.31667	6.031153
40.33333	6.064259
40.35	6.089356
40.36667	6.116309
40.38333	6.147852
40.4	6.184474
40.41667	6.223341
40.43333	6.261329
40.45	6.298829
40.46667	6.336133
40.48333	6.37461
40.5	6.412501
40.51667	6.448536
40.53333	6.484376
40.55	6.528224
40.56667	6.582813
40.58333	6.638575
40.6	6.690821
40.61667	6.746583
40.63333	6.809864
40.65	6.87588
40.66667	6.937013
40.68333	6.991895
40.7	7.035841
40.71667	7.062696
40.73333	7.065821
40.75	7.051759
40.76667	7.033204
40.78333	7.019044
40.8	7.01045
40.81667	7.006739
40.83333	7.003028
40.85	6.997755
40.86667	6.996583
40.88333	7.004591
40.9	7.019044
40.91667	7.028712
40.93333	7.032618
40.95	7.037891
40.96667	7.055079
40.98333	7.081056
41	7.103809
41.01667	7.117677
41.03333	7.132326
41.05	7.153712
41.06667	7.17715
41.08333	7.197267
41.1	7.216017
41.11667	7.235158
41.13333	7.252541
41.15	7.269923
41.16667	7.28672
41.18333	7.305177
41.2	7.324904
41.21667	7.350099
41.23333	7.379786
41.25	7.404982
41.26667	7.426076
41.28333	7.451662
41.3	7.484084
41.31667	7.513283
41.33333	7.531935
41.35	7.544631
41.36667	7.555763
41.38333	7.565138
41.4	7.573537
41.41667	7.586427
41.43333	7.60674
41.45	7.627833
41.46667	7.647267
41.48333	7.666603
41.5	7.690431
41.51667	7.71465
41.53333	7.7334
41.55	7.7459
41.56667	7.759084
41.58333	7.778322
41.6	7.802834
41.61667	7.826955
41.63333	7.851271
41.65	7.878419
41.66667	7.9084
41.68333	7.934083
41.7	7.951369
41.71667	7.967287
41.73333	7.987599
41.75	8.007131
41.76667	8.019142
41.78333	8.023634
41.8	8.032521
41.81667	8.048146
41.83333	8.060353
41.85	8.06338
41.86667	8.069826
41.88333	8.091115
41.9	8.118947
41.91667	8.135744
41.93333	8.135549
41.95	8.130373
41.96667	8.134181
41.98333	8.146584
42	8.161329
42.01667	8.17588
42.03333	8.187892
42.05	8.196486
42.06667	8.203517
42.08333	8.214943
42.1	8.228322
42.11667	8.234962
42.13333	8.23467
42.15	8.238869
42.16667	8.25342
42.18333	8.267092
42.2	8.270119
42.21667	8.268068
42.23333	8.270802
42.25	8.279299
42.26667	8.288088
42.28333	8.294728
42.3	8.296389
42.31667	8.296583
42.33333	8.298635
42.35	8.303225
42.36667	8.313673
42.38333	8.333888
42.4	8.357618
42.41667	8.368849
42.43333	8.363185
42.45	8.352541
42.46667	8.348829
42.48333	8.352541
42.5	8.355665
42.51667	8.352345
42.53333	8.348829
42.55	8.351564
42.56667	8.358009
42.58333	8.363673
42.6	8.369533
42.61667	8.37715
42.63333	8.382521
42.65	8.382619
42.66667	8.382521
42.68333	8.391505
42.7	8.407423
42.71667	8.419337
42.73333	8.419533
42.75	8.412209
42.76667	8.403322
42.78333	8.397853
42.8	8.399318
42.81667	8.403615
42.83333	8.400881
42.85	8.386622
42.86667	8.367579
42.88333	8.346193
42.9	8.320607
42.91667	8.295314
42.93333	8.279299
42.95	8.274025
42.96667	8.274904
42.98333	8.286135
43	8.315626
43.01667	8.359571
43.03333	8.406837
43.05	8.447365
43.06667	8.479494
43.08333	8.502736
43.1	8.516212
43.11667	8.517873
43.13333	8.504298
43.15	8.468458
43.16667	8.402638
43.18333	8.300588
43.2	8.154884
43.21667	7.964064
43.23333	7.742287
43.25	7.50879
43.26667	7.272365
43.28333	7.028907
43.3	6.779786
43.31667	6.53252
43.33333	6.297559
43.35	6.080665
43.36667	5.878516
43.38333	5.680665
43.4	5.48672
43.41667	5.30752
43.43333	5.148438
43.45	5.002931
43.46667	4.859376
43.48333	4.712794
43.5	4.565431
43.51667	4.425684
43.53333	4.295606
43.55	4.16836
43.56667	4.039942
43.58333	3.917872
43.6	3.806739
43.61667	3.701661
43.63333	3.596778
43.65	3.493067
43.66667	3.39502
43.68333	3.30254
43.7	3.212208
43.71667	3.123829
43.73333	3.037208
43.75	2.946095
43.76667	2.843751
43.78333	2.738575
43.8	2.645313
43.81667	2.570508
43.83333	2.503907
43.85	2.432032
43.86667	2.350391
43.88333	2.263477
43.9	2.180274
43.91667	2.106349
43.93333	2.039454
43.95	1.974317
43.96667	1.912598
43.98333	1.858009
44	1.80752
44.01667	1.754298
44.03333	1.698829
44.05	1.643946
44.06667	1.58545
44.08333	1.520313
44.1	1.457813
44.11667	1.403809
44.13333	1.358302
44.15	1.320411
44.16667	1.291016
44.18333	1.265626
44.2	1.235352
44.21667	1.200391
44.23333	1.165919
44.25	1.133497
44.26667	1.102051
44.28333	1.073145
44.3	1.050001
44.31667	1.030762
44.33333	1.008888
44.35	0.9801766
44.36667	0.9503914
44.38333	0.9262703
44.4	0.9059578
44.41667	0.8844734
44.43333	0.8649422
44.45	0.8478523
44.46667	0.8299812
44.48333	0.8123055
44.5	0.7954109
44.51667	0.7810555
44.53333	0.7647468
44.55	0.7427742
44.56667	0.7182625
44.58333	0.6987312
44.6	0.6886727
44.61667	0.6818367
44.63333	0.6672859
44.65	0.6424812
44.66667	0.6119148
44.68333	0.5804695
44.7	0.5532234
44.71667	0.532325
44.73333	0.5192391
44.75	0.5078133
44.76667	0.4937508
44.78333	0.4787117
44.8	0.463868
44.81667	0.4465828
44.83333	0.4209968
44.85	0.391993
44.86667	0.3670906
44.88333	0.3496101
44.9	0.331739
44.91667	0.3103523
44.93333	0.2834969
44.95	0.2572273
44.96667	0.2397469
44.98333	0.2324226
45	0.2275398
45.01667	0.219532
45.03333	0.2097664
45.05	0.1993172
45.06667	0.1880867
45.08333	0.1804695
45.1	0.1775398
45.11667	0.1708992
45.13333	0.1561531
45.15	0.1396492
45.16667	0.1290047
45.18333	0.1240242
45.2	0.1185554
45.21667	0.1115242
45.23333	0.1045906
45.25	0.09863357
45.26667	0.09511795
45.28333	0.09306717
45.3	0.08945389
45.31667	0.08349685
45.33333	0.0778328
45.35	0.07382889
45.36667	0.07060623
45.38333	0.06669998
45.4	0.06162186
45.41667	0.05478592
45.43333	0.04834061
45.45	0.04521561
45.46667	0.04111404
45.48333	0.03437576
45.5	0.03056717
45.51667	0.03320389
45.53333	0.03564529
45.55	0.03046951
45.56667	0.01806717
45.58333	0.006153107
45.6	0.003321075
45.61667	0.004981232
45.63333	0.001758575
45.65	-0.00800705
45.66667	-0.01757736
45.68333	-0.0228508
45.7	-0.02353439
45.71667	-0.0212883
45.73333	-0.01679611
45.75	-0.01464767
45.76667	-0.01777267
45.78333	-0.02206955
45.8	-0.02333908
45.81667	-0.02119064
45.83333	-0.01874924
45.85	-0.01894455
45.86667	-0.02324142
45.88333	-0.03290939
45.9	-0.04912033
45.91667	-0.06894455
45.93333	-0.08496018
45.95	-0.08701096
45.96667	-0.07558517
45.98333	-0.05849533
46	-0.04677658
46.01667	-0.04453049
46.03333	-0.0494133
46.05	-0.05761642
46.06667	-0.06415939
46.08333	-0.06445237
46.1	-0.05956955
46.11667	-0.05488205
46.13333	-0.05302658
46.15	-0.05165939
46.16667	-0.05175705
46.18333	-0.05517502
46.2	-0.06054611
46.21667	-0.06611252
46.23333	-0.07275315
46.25	-0.08183517
46.26667	-0.09023361
46.28333	-0.09658127
46.3	-0.09882736
46.31667	-0.09746017
46.33333	-0.09492111
46.35	-0.09013595
46.36667	-0.08154221
46.38333	-0.06874923
46.4	-0.05790939
46.41667	-0.05292892
46.43333	-0.05292892
46.45	-0.0549797
46.46667	-0.05927658
46.48333	-0.06474533
46.5	-0.07050705
46.51667	-0.07617112
46.53333	-0.07568283
46.55	-0.06777267
46.56667	-0.06376877
46.58333	-0.07206955
46.6	-0.08349533
46.61667	-0.08310471
46.63333	-0.07236252
46.65	-0.0643547
46.66667	-0.06591721
46.68333	-0.07499924
46.7	-0.08652268
46.71667	-0.09619065
46.73333	-0.1009758
46.75	-0.1018547
46.76667	-0.1027336
46.78333	-0.1011711
46.8	-0.09716721
46.81667	-0.09238205
46.83333	-0.09091721
46.85	-0.09384689
46.86667	-0.1010735
46.88333	-0.1070305
46.9	-0.1042961
46.91667	-0.09296799
46.93333	-0.08281174
46.95	-0.08710861
46.96667	-0.1047844
46.98333	-0.1219719
47	-0.1235344
47.01667	-0.1150383
47.03333	-0.1068352
47.05	-0.09960862
47.06667	-0.08964767
47.08333	-0.08037033
47.1	-0.07538986
47.11667	-0.07343674
47.13333	-0.07412033
47.15	-0.07919846
47.16667	-0.08515549
47.18333	-0.08251877
47.2	-0.07265548
47.21667	-0.06835862
47.23333	-0.0784172
47.25	-0.0922844
47.26667	-0.1004875
47.28333	-0.101757
47.3	-0.1006828
47.31667	-0.1003899
47.33333	-0.09863205
47.35	-0.09384689
47.36667	-0.09033127
47.38333	-0.09355392
47.4	-0.09892502
47.41667	-0.09931564
47.43333	-0.09501877
47.45	-0.08955002
47.46667	-0.08261643
47.48333	-0.07607345
47.5	-0.07343674
47.51667	-0.07343674
47.53333	-0.07324143
47.55	-0.07509689
47.56667	-0.08203049
47.58333	-0.09150314
47.6	-0.09765549
47.61667	-0.09667893
47.63333	-0.09101486
47.65	-0.08759689
47.66667	-0.08915939
47.68333	-0.0922844
47.7	-0.09287033
47.71667	-0.08925705
47.73333	-0.08154221
47.75	-0.07499924
47.76667	-0.07412033
47.78333	-0.0775383
47.8	-0.07890549
47.81667	-0.07714768
47.83333	-0.07558517
47.85	-0.07656173
47.86667	-0.08212814
47.88333	-0.08749924
47.9	-0.08769455
47.91667	-0.08242111
47.93333	-0.07929611
47.95	-0.08261643
47.96667	-0.08603439
47.98333	-0.08300705
48	-0.07802658
48.01667	-0.07802658
48.03333	-0.08310471
48.05	-0.0877922
48.06667	-0.09218673
48.08333	-0.09638596
48.1	-0.09599533
48.11667	-0.08759689
48.13333	-0.07607345
48.15	-0.06923752
48.16667	-0.07343674
48.18333	-0.08134689
48.2	-0.08642502
48.21667	-0.08808517
48.23333	-0.08652268
48.25	-0.07851486
48.26667	-0.06484298
48.28333	-0.05468674
48.3	-0.05429611
48.31667	-0.06298752
48.33333	-0.07675705
48.35	-0.08525314
48.36667	-0.08330002
48.38333	-0.07812424
48.4	-0.08193283
48.41667	-0.09540939
48.43333	-0.1033195
48.45	-0.09833908
48.46667	-0.09072189
48.48333	-0.0916008
48.5	-0.09716721
48.51667	-0.09990158
48.53333	-0.1007805
48.55	-0.1016594
48.56667	-0.1013664
48.58333	-0.09863205
48.6	-0.09423752
48.61667	-0.08642502
48.63333	-0.07890549
48.65	-0.08076096
48.66667	-0.09287033
48.68333	-0.1063469
48.7	-0.1102531
48.71667	-0.1016594
48.73333	-0.08496018
48.75	-0.06982346
48.76667	-0.06074142
48.78333	-0.05527268
48.8	-0.05390549
48.81667	-0.06103439
48.83333	-0.07236252
48.85	-0.07763596
48.86667	-0.07724533
48.88333	-0.0791008
48.9	-0.08515549
48.91667	-0.09179612
48.93333	-0.0978508
48.95	-0.1021477
48.96667	-0.1002922
48.98333	-0.09394455
49	-0.08935471
49.01667	-0.08720627
49.03333	-0.0837883
49.05	-0.08173752
49.06667	-0.08525314
49.08333	-0.09189377
49.1	-0.09746017
49.11667	-0.1013664
49.13333	-0.1024406
49.15	-0.09980392
49.16667	-0.09775314
49.18333	-0.09912033
49.2	-0.09853439
49.21667	-0.09423752
49.23333	-0.08994064
49.25	-0.08720627
49.26667	-0.08593674
49.28333	-0.08837815
49.3	-0.0931633
49.31667	-0.09335861
49.33333	-0.08564377
49.35	-0.0791008
49.36667	-0.07968674
49.38333	-0.08330002
49.4	-0.08652268
49.41667	-0.09189377
49.43333	-0.09824143
49.45	-0.09570237
49.46667	-0.08251877
49.48333	-0.0712883
49.5	-0.07480393
49.51667	-0.08466721
49.53333	-0.0869133
49.55	-0.08193283
49.56667	-0.08144455
49.58333	-0.08652268
49.6	-0.0884758
49.61667	-0.08544846
49.63333	-0.08261643
49.65	-0.08271408
49.66667	-0.08076096
49.68333	-0.07714768
49.7	-0.0775383
49.71667	-0.08671799
49.73333	-0.09863205
49.75	-0.1019524
49.76667	-0.09296799
49.78333	-0.07949142
49.8	-0.07451095
49.81667	-0.0799797
49.83333	-0.08642502
49.85	-0.08740158
49.86667	-0.08613205
49.88333	-0.08808517
49.9	-0.09169845
49.91667	-0.09267502
49.93333	-0.08808517
49.95	-0.07880783
49.96667	-0.07011642
49.98333	-0.07392502
50	-0.09013595
50.01667	-0.1124016
50.03333	-0.1322258
50.05	-0.1415031
50.06667	-0.1376946
50.08333	-0.1221672
50.1	-0.1013664
50.11667	-0.08837815
50.13333	-0.08681564
50.15	-0.09042893
50.16667	-0.08730392
50.18333	-0.08037033
50.2	-0.08388595
50.21667	-0.09794845
50.23333	-0.1056633
50.25	-0.09980392
50.26667	-0.0931633
50.28333	-0.09433518
50.3	-0.09853439
50.31667	-0.1000969
50.33333	-0.09872971
50.35	-0.09199142
50.36667	-0.08115158
50.38333	-0.07714768
50.4	-0.08681564
50.41667	-0.1003899
50.43333	-0.1032219
50.45	-0.09658127
50.46667	-0.09199142
50.48333	-0.09326096
50.5	-0.09394455
50.51667	-0.09121017
50.53333	-0.08525314
50.55	-0.07636642
50.56667	-0.06904221
50.58333	-0.07040939
50.6	-0.07763596
50.61667	-0.08173752
50.63333	-0.08271408
50.65	-0.08583908
50.66667	-0.09257736
50.68333	-0.09804611
50.7	-0.1003899
50.71667	-0.1021477
50.73333	-0.1060539
50.75	-0.1091789
50.76667	-0.1086906
50.78333	-0.1056633
50.8	-0.09921799
50.81667	-0.08974533
50.83333	-0.08183517
50.85	-0.07929611
50.86667	-0.07900314
50.88333	-0.07568283
50.9	-0.07089768
50.91667	-0.07343674
50.93333	-0.07763596
50.95	-0.07773361
50.96667	-0.07695236
50.98333	-0.08085861
51	-0.08437423
51.01667	-0.08056565
51.03333	-0.07451095
51.05	-0.0784172
51.06667	-0.09413986
51.08333	-0.1152336
51.1	-0.1289055
51.11667	-0.1279289
51.13333	-0.1157219
51.15	-0.1043938
51.16667	-0.1005852
51.18333	-0.1013664
51.2	-0.1032219
51.21667	-0.10205
51.23333	-0.09619065
51.25	-0.09169845
51.26667	-0.09755783
51.28333	-0.1110344
51.3	-0.1207024
51.31667	-0.1188469
51.33333	-0.1132805
51.35	-0.115136
51.36667	-0.1203117
51.38333	-0.1189445
51.4	-0.1084953
51.41667	-0.09951095
51.43333	-0.09540939
51.45	-0.0947258
51.46667	-0.09199142
51.48333	-0.0877922
51.5	-0.0853508
51.51667	-0.0837883
51.53333	-0.08163986
51.55	-0.08105393
51.56667	-0.08525314
51.58333	-0.09052658
51.6	-0.09072189
51.61667	-0.0877922
51.63333	-0.08730392
51.65	-0.09247971
51.66667	-0.09697189
51.68333	-0.09374924
51.7	-0.08749924
51.71667	-0.08915939
51.73333	-0.09931564
51.75	-0.1066399
51.76667	-0.1018547
51.78333	-0.08964767
51.8	-0.08154221
51.81667	-0.08496018
51.83333	-0.09667893
51.85	-0.1068352
51.86667	-0.1066399
51.88333	-0.09531174
51.9	-0.08300705
51.91667	-0.07861252
51.93333	-0.07880783
51.95	-0.07695236
51.96667	-0.07714768
51.98333	-0.08710861
52	-0.102636
52.01667	-0.111132
52.03333	-0.1053703
52.05	-0.09033127
52.06667	-0.0766594
52.08333	-0.07255783
52.1	-0.0806633
52.11667	-0.09062424
52.13333	-0.09540939
52.15	-0.09443283
52.16667	-0.09531174
52.18333	-0.1010735
52.2	-0.1079094
52.21667	-0.1087883
52.23333	-0.1027336
52.25	-0.09570237
52.26667	-0.09638596
52.28333	-0.1029289
52.3	-0.104882
52.31667	-0.09902267
52.33333	-0.0947258
52.35	-0.09980392
52.36667	-0.108593
52.38333	-0.1112297
52.4	-0.1066399
52.41667	-0.1007805
52.43333	-0.1000969
52.45	-0.1067375
52.46667	-0.1165031
52.48333	-0.123925
52.5	-0.1260734
52.51667	-0.1223625
52.53333	-0.1122063
52.55	-0.1022453
52.56667	-0.09677658
52.58333	-0.09374924
52.6	-0.09081955
52.61667	-0.08681564
52.63333	-0.08417892
52.65	-0.08798752
52.66667	-0.09726486
52.68333	-0.1050774
52.7	-0.1060539
52.71667	-0.1025383
52.73333	-0.1001946
52.75	-0.1002922
52.76667	-0.1033195
52.78333	-0.1040031
52.8	-0.09667893
52.81667	-0.08671799
52.83333	-0.08544846
52.85	-0.09306564
52.86667	-0.09599533
52.88333	-0.08886643
52.9	-0.08310471
52.91667	-0.08671799
52.93333	-0.09384689
52.95	-0.09736252
52.96667	-0.09648361
52.98333	-0.09374924
53	-0.09091721
53.01667	-0.08603439
53.03333	-0.08154221
53.05	-0.08134689
53.06667	-0.08603439
53.08333	-0.09062424
53.1	-0.08857346
53.11667	-0.08076096
53.13333	-0.07167892
53.15	-0.06738205
53.16667	-0.0721672
53.18333	-0.08242111
53.2	-0.08828048
53.21667	-0.08466721
53.23333	-0.07402267
53.25	-0.06513596
53.26667	-0.06425705
53.28333	-0.07011642
53.3	-0.07763596
53.31667	-0.08105393
53.33333	-0.07988205
53.35	-0.07558517
53.36667	-0.06913986
53.38333	-0.06669845
53.4	-0.07080002
53.41667	-0.07958908
53.43333	-0.08544846
53.45	-0.0844719
53.46667	-0.07968674
53.48333	-0.0791008
53.5	-0.08183517
53.51667	-0.08466721
53.53333	-0.08525314
53.55	-0.08320236
53.56667	-0.07831955
53.58333	-0.07255783
53.6	-0.07070236
53.61667	-0.0688469
53.63333	-0.0650383
53.65	-0.06494065
53.66667	-0.0681633
53.68333	-0.07001877
53.7	-0.07138596
53.71667	-0.07538986
53.73333	-0.07705002
53.75	-0.07529221
53.76667	-0.07431564
53.78333	-0.07402267
53.8	-0.07021408
53.81667	-0.06747971
53.83333	-0.06640549
53.85	-0.06328049
53.86667	-0.05839767
53.88333	-0.05663986
53.9	-0.05585861
53.91667	-0.05429611
53.93333	-0.05419846
53.95	-0.05917893
53.96667	-0.0643547
53.98333	-0.07021408
54	-0.08046798
54.01667	-0.09218673
54.03333	-0.09716721
54.05	-0.09531174
54.06667	-0.09101486
54.08333	-0.08515549
54.1	-0.07509689
54.11667	-0.06425705
54.13333	-0.05830002
54.15	-0.05830002
54.16667	-0.06298752
54.18333	-0.07021408
54.2	-0.07626877
54.21667	-0.08017502
54.23333	-0.08544846
54.25	-0.08857346
54.26667	-0.08144455
54.28333	-0.06708908
54.3	-0.05849533
54.31667	-0.05917893
54.33333	-0.06542893
54.35	-0.07343674
54.36667	-0.07890549
54.38333	-0.07744064
54.4	-0.06777267
54.41667	-0.05927658
54.43333	-0.05976486
54.45	-0.06855392
54.46667	-0.07724533
54.48333	-0.07734299
54.5	-0.07031174
54.51667	-0.06132736
54.53333	-0.05615158
54.55	-0.05663986
54.56667	-0.05712814
54.58333	-0.05136643
54.6	-0.04267502
54.61667	-0.03945236
54.63333	-0.04130783
54.65	-0.04374924
54.66667	-0.04589767
54.68333	-0.04667892
54.7	-0.0400383
54.71667	-0.02705002
54.73333	-0.01982346
54.75	-0.02685471
54.76667	-0.04296799
54.78333	-0.05273361
54.8	-0.05244064
54.81667	-0.04951096
54.83333	-0.05019455
54.85	-0.05195236
54.86667	-0.05624924
54.88333	-0.06621017
54.9	-0.07900314
54.91667	-0.07978439
54.93333	-0.06650314
54.95	-0.0541008
54.96667	-0.05107345
54.98333	-0.04951096
55	-0.04492111
