"SampleName"	"20. PC-12 Atp2b2 shRNA TR"
"System Name"	"Alliance 2"
"Sample Set Name"	"DTtV_15052025 GSL new HPLC"
"Date Acquired"	"5/16/2025 8:47:36 AM BST"
"Sample Set Start Date"	"5/15/2025 2:04:31 PM BST"
0	0.001937103
0.01666667	0.002273178
0.03333333	0.0009078979
0.05	0.003544617
0.06666667	0.01067352
0.08333333	0.02346649
0.1	0.03586883
0.1166667	0.04524384
0.1333333	0.05315399
0.15	0.0618454
0.1666667	0.06858368
0.1833333	0.0712204
0.2	0.07336883
0.2166667	0.0752243
0.2333333	0.07707977
0.25	0.07834931
0.2666667	0.07620087
0.2833333	0.06711884
0.3	0.05530243
0.3166667	0.05510712
0.3333333	0.06663056
0.35	0.07541962
0.3666667	0.07190399
0.3833333	0.06047821
0.4	0.05256806
0.4166667	0.05422821
0.4333333	0.06233368
0.45	0.06936493
0.4666667	0.06946258
0.4833333	0.06125946
0.5	0.05100555
0.5166667	0.04592743
0.5333333	0.04534149
0.55	0.04446258
0.5666667	0.04280243
0.5833333	0.04612274
0.6	0.05081024
0.6166667	0.04729462
0.6333333	0.03420868
0.65	0.02288055
0.6666667	0.02336884
0.6833333	0.03069305
0.7	0.03645477
0.7166667	0.03752899
0.7333333	0.03860321
0.75	0.04514618
0.7666667	0.05461884
0.7833333	0.05998993
0.8	0.05823212
0.8166667	0.04954071
0.8333333	0.03967743
0.85	0.0361618
0.8666667	0.03918915
0.8833333	0.04114227
0.9	0.03704071
0.9166667	0.03118134
0.9333333	0.02766571
0.95	0.0283493
0.9666667	0.03088837
0.9833333	0.03264618
1	0.03049774
1.016667	0.02981415
1.033333	0.03401337
1.05	0.03909149
1.066667	0.04016571
1.083333	0.03665008
1.1	0.03166962
1.116667	0.02698212
1.133333	0.0252243
1.15	0.02668915
1.166667	0.02873993
1.183333	0.02815399
1.2	0.02493134
1.216667	0.02190399
1.233333	0.01936493
1.25	0.01682587
1.266667	0.009111023
1.283333	-0.00202179
1.3	-0.00983429
1.316667	-0.01129913
1.333333	-0.008857727
1.35	-0.003388977
1.366667	0.003251648
1.383333	0.008622741
1.4	0.007157898
1.416667	0.0004196167
1.433333	-0.002900696
1.45	0.003056335
1.466667	0.01077118
1.483333	0.008232117
1.5	-0.003681946
1.516667	-0.0131546
1.533333	-0.01452179
1.55	-0.009931946
1.566667	-0.003486633
1.583333	0.0008102417
1.6	0.0008102417
1.616667	-0.001631165
1.633333	-0.003486633
1.65	-0.006221008
1.666667	-0.009150696
1.683333	-0.002900696
1.7	0.02043915
1.716667	0.05793915
1.733333	0.1051071
1.75	0.1573532
1.766667	0.2072556
1.783333	0.2446579
1.8	0.265947
1.816667	0.2777634
1.833333	0.2782516
1.85	0.2637009
1.866667	0.2357712
1.883333	0.1988571
1.9	0.1649704
1.916667	0.1410446
1.933333	0.1229782
1.95	0.1020798
1.966667	0.0805954
1.983333	0.06858368
2	0.06106415
2.016667	0.05081024
2.033333	0.03635712
2.05	0.02649384
2.066667	0.02385712
2.083333	0.0252243
2.1	0.02873993
2.116667	0.03137665
2.133333	0.02551727
2.15	0.007939148
2.166667	-0.009346008
2.183333	-0.01891632
2.2	-0.02624054
2.216667	-0.03444367
2.233333	-0.04147492
2.25	-0.04508819
2.266667	-0.04889679
2.283333	-0.05514679
2.3	-0.06325226
2.316667	-0.06950226
2.333333	-0.0725296
2.35	-0.07584991
2.366667	-0.08317413
2.383333	-0.09469757
2.4	-0.1100296
2.416667	-0.1290726
2.433333	-0.1511429
2.45	-0.1639359
2.466667	-0.1610062
2.483333	-0.1506546
2.5	-0.1483109
2.516667	-0.1580765
2.533333	-0.1713577
2.55	-0.180928
2.566667	-0.1883499
2.583333	-0.197139
2.6	-0.2082718
2.616667	-0.2182327
2.633333	-0.2222366
2.65	-0.2178421
2.666667	-0.2031937
2.683333	-0.1730179
2.7	-0.124678
2.716667	-0.06042023
2.733333	0.01331024
2.75	0.0962204
2.766667	0.1949509
2.783333	0.318779
2.8	0.4884079
2.816667	0.7305954
2.833333	1.067314
2.85	1.501689
2.866667	2.012724
2.883333	2.558525
2.9	3.095927
2.916667	3.597197
2.933333	4.055498
2.95	4.459795
2.966667	4.797392
2.983333	5.062139
3	5.26331
3.016667	5.422685
3.033333	5.571318
3.05	5.737724
3.066667	5.933135
3.083333	6.154912
3.1	6.393095
3.116667	6.63206
3.133333	6.850615
3.15	7.029814
3.166667	7.153056
3.183333	7.214189
3.2	7.236259
3.216667	7.264678
3.233333	7.357549
3.25	7.588506
3.266667	8.160771
3.283333	9.591533
3.3	12.74134
3.316667	18.41214
3.333333	26.64359
3.35	36.32796
3.366667	45.60921
3.383333	52.78558
3.4	56.99466
3.416667	58.32317
3.433333	57.82337
3.45	58.56155
3.466667	68.49055
3.483333	102.8031
3.5	179.9868
3.516667	309.8401
3.533333	483.082
3.55	674.8622
3.566667	859.3493
3.583333	1019.462
3.6	1144.017
3.616667	1221.761
3.633333	1242.762
3.65	1205.316
3.666667	1119.745
3.683333	1004.979
3.7	881.0988
3.716667	763.308
3.733333	660.082
3.75	574.4467
3.766667	506.2565
3.783333	454.2638
3.8	417.1375
3.816667	393.213
3.833333	379.6802
3.85	372.0326
3.866667	364.3827
3.883333	351.2618
3.9	330.0188
3.916667	300.6991
3.933333	263.5028
3.95	218.7872
3.966667	170.3534
3.983333	125.6898
4	90.97913
4.016667	67.18968
4.033333	51.64866
4.05	41.42152
4.066667	34.54271
4.083333	29.73089
4.1	26.1141
4.116667	23.1806
4.133333	20.71839
4.15	18.6846
4.166667	17.08245
4.183333	15.8888
4.2	15.03411
4.216667	14.43196
4.233333	14.00628
4.25	13.69524
4.266667	13.44339
4.283333	13.22268
4.3	13.03831
4.316667	12.92464
4.333333	12.91731
4.35	13.047
4.366667	13.32796
4.383333	13.74808
4.4	14.27034
4.416667	14.82366
4.433333	15.29935
4.45	15.57972
4.466667	15.58118
4.483333	15.28294
4.5	14.72142
4.516667	13.97288
4.533333	13.12317
4.55	12.23587
4.566667	11.34671
4.583333	10.47767
4.6	9.654716
4.616667	8.915068
4.633333	8.295341
4.65	7.82249
4.666667	7.521025
4.683333	7.416142
4.7	7.501298
4.716667	7.712626
4.733333	7.945048
4.75	8.099541
4.766667	8.121513
4.783333	8.018877
4.8	7.839971
4.816667	7.643974
4.833333	7.472783
4.85	7.340752
4.866667	7.231474
4.883333	7.124443
4.9	7.026787
4.916667	6.969658
4.933333	6.980986
4.95	7.063506
4.966667	7.191435
4.983333	7.316435
5	7.391923
5.016667	7.39583
5.033333	7.332549
5.05	7.226787
5.066667	7.114873
5.083333	7.028349
5.1	6.97581
5.116667	6.947587
5.133333	6.928447
5.15	6.89622
5.166667	6.818193
5.183333	6.672392
5.2	6.462041
5.216667	6.211845
5.233333	5.950127
5.25	5.695439
5.266667	5.452959
5.283333	5.227568
5.3	5.024638
5.316667	4.838408
5.333333	4.656084
5.35	4.475322
5.366667	4.313603
5.383333	4.192021
5.4	4.124639
5.416667	4.113994
5.433333	4.149638
5.45	4.216435
5.466667	4.288701
5.483333	4.338408
5.5	4.347295
5.516667	4.321123
5.533333	4.289384
5.55	4.301103
5.566667	4.412041
5.583333	4.665361
5.6	5.065459
5.616667	5.555888
5.633333	6.023955
5.65	6.351201
5.666667	6.469365
5.683333	6.385283
5.7	6.155498
5.716667	5.856963
5.733333	5.559013
5.75	5.31331
5.766667	5.143095
5.783333	5.043779
5.8	4.994365
5.816667	4.979228
5.833333	4.993388
5.85	5.030791
5.866667	5.076787
5.883333	5.11497
5.9	5.132744
5.916667	5.118388
5.933333	5.057549
5.95	4.948662
5.966667	4.802373
5.983333	4.627959
6	4.431279
6.016667	4.221611
6.033333	4.010966
6.05	3.804228
6.066667	3.605986
6.083333	3.430986
6.1	3.291045
6.116667	3.184697
6.133333	3.103935
6.15	3.043388
6.166667	2.998466
6.183333	2.959892
6.2	2.917802
6.216667	2.868681
6.233333	2.816826
6.25	2.765459
6.266667	2.710283
6.283333	2.646904
6.3	2.577275
6.316667	2.50833
6.333333	2.443681
6.35	2.386357
6.366667	2.33665
6.383333	2.295146
6.4	2.261455
6.416667	2.236259
6.433333	2.219365
6.45	2.209111
6.466667	2.202959
6.483333	2.202373
6.5	2.211357
6.516667	2.232646
6.533333	2.264189
6.55	2.298955
6.566667	2.326396
6.583333	2.338799
6.6	2.334111
6.616667	2.316142
6.633333	2.286845
6.65	2.248662
6.666667	2.198271
6.683333	2.132158
6.7	2.057744
6.716667	1.986259
6.733333	1.921513
6.75	1.863896
6.766667	1.816728
6.783333	1.775224
6.8	1.734599
6.816667	1.702861
6.833333	1.694463
6.85	1.712041
6.866667	1.748271
6.883333	1.79915
6.9	1.866533
6.916667	1.946904
6.933333	2.032158
6.95	2.11292
6.966667	2.180791
6.983333	2.224052
7	2.232158
7.016667	2.206377
7.033333	2.162236
7.05	2.11165
7.066667	2.057939
7.083333	2.006181
7.1	1.965947
7.116667	1.943681
7.133333	1.930693
7.15	1.914775
7.166667	1.886943
7.183333	1.8554
7.2	1.832939
7.216667	1.82122
7.233333	1.808525
7.25	1.786748
7.266667	1.759795
7.283333	1.738701
7.3	1.730595
7.316667	1.742021
7.333333	1.785185
7.35	1.87581
7.366667	2.022099
7.383333	2.224443
7.4	2.469951
7.416667	2.725908
7.433333	2.944072
7.45	3.086748
7.466667	3.137334
7.483333	3.099736
7.5	2.991924
7.516667	2.842216
7.533333	2.671318
7.55	2.49124
7.566667	2.310869
7.583333	2.138994
7.6	1.984306
7.616667	1.857451
7.633333	1.761455
7.65	1.68372
7.666667	1.60706
7.683333	1.532451
7.7	1.473857
7.716667	1.435381
7.733333	1.411943
7.75	1.399736
7.766667	1.398857
7.783333	1.406181
7.8	1.417314
7.816667	1.429424
7.833333	1.438408
7.85	1.439775
7.866667	1.43665
7.883333	1.435478
7.9	1.437724
7.916667	1.439775
7.933333	1.440752
7.95	1.445732
7.966667	1.45706
7.983333	1.470244
8	1.482158
8.016667	1.490849
8.033333	1.493974
8.05	1.490849
8.066667	1.492998
8.083333	1.51458
8.1	1.55247
8.116667	1.590654
8.133333	1.627763
8.15	1.676298
8.166667	1.748271
8.183333	1.846904
8.2	1.970439
8.216667	2.121416
8.233333	2.302666
8.25	2.506767
8.266667	2.712822
8.283333	2.898076
8.3	3.05081
8.316667	3.163115
8.333333	3.226103
8.35	3.231865
8.366667	3.17708
8.383333	3.065459
8.4	2.90833
8.416667	2.725029
8.433333	2.537627
8.45	2.358428
8.466667	2.187041
8.483333	2.022002
8.5	1.872783
8.516667	1.749931
8.533333	1.651299
8.55	1.56458
8.566667	1.484013
8.583333	1.413701
8.6	1.359697
8.616667	1.317607
8.633333	1.278349
8.65	1.237334
8.666667	1.199638
8.683333	1.172978
8.7	1.161845
8.716667	1.160283
8.733333	1.161845
8.75	1.162138
8.766667	1.156963
8.783333	1.147099
8.8	1.138408
8.816667	1.132256
8.833333	1.126787
8.85	1.123857
8.866667	1.128935
8.883333	1.13958
8.9	1.1554
8.916667	1.179716
8.933333	1.219365
8.95	1.273271
8.966667	1.335771
8.983333	1.403056
9	1.47415
9.016667	1.543486
9.033333	1.611162
9.05	1.690068
9.066667	1.790947
9.083333	1.908916
9.1	2.033623
9.116667	2.160771
9.133333	2.286748
9.15	2.400127
9.166667	2.485576
9.183333	2.532451
9.2	2.538408
9.216667	2.507646
9.233333	2.441826
9.25	2.343681
9.266667	2.225224
9.283333	2.098955
9.3	1.97122
9.316667	1.842705
9.333333	1.718974
9.35	1.605693
9.366667	1.505205
9.383333	1.415068
9.4	1.329814
9.416667	1.245537
9.433333	1.169365
9.45	1.110478
9.466667	1.064677
9.483333	1.016631
9.5	0.9601852
9.516667	0.9036423
9.533333	0.8560837
9.55	0.8198532
9.566667	0.7984665
9.583333	0.7933884
9.6	0.7983688
9.616667	0.8054978
9.633333	0.8130172
9.65	0.8242477
9.666667	0.8412399
9.683333	0.8626267
9.7	0.8807907
9.716667	0.8917282
9.733333	0.8977829
9.75	0.9104782
9.766667	0.9458297
9.783333	1.004521
9.8	1.070146
9.816667	1.131084
9.833333	1.188994
9.85	1.245342
9.866667	1.294365
9.883333	1.329228
9.9	1.349345
9.916667	1.358135
9.933333	1.355009
9.95	1.336455
9.966667	1.297881
9.983333	1.238896
10	1.163799
10.01667	1.078447
10.03333	0.9922165
10.05	0.9145797
10.06667	0.8471969
10.08333	0.7835251
10.1	0.7207321
10.11667	0.6633102
10.13333	0.6204392
10.15	0.5922165
10.16667	0.5689743
10.18333	0.5398728
10.2	0.5093063
10.21667	0.4887985
10.23333	0.4814743
10.25	0.4814743
10.26667	0.4820603
10.28333	0.4807907
10.3	0.474443
10.31667	0.4636032
10.33333	0.450029
10.35	0.440361
10.36667	0.433818
10.38333	0.4266891
10.4	0.4157516
10.41667	0.4078415
10.43333	0.4042282
10.45	0.3972946
10.46667	0.384404
10.48333	0.3759079
10.5	0.3793259
10.51667	0.3908493
10.53333	0.3998337
10.55	0.396904
10.56667	0.3882126
10.58333	0.3799118
10.6	0.3730759
10.61667	0.3685837
10.63333	0.3676071
10.65	0.3682907
10.66667	0.3709274
10.68333	0.3766891
10.7	0.3856735
10.71667	0.393486
10.73333	0.3953415
10.75	0.3880173
10.76667	0.3756149
10.78333	0.3638962
10.8	0.3575485
10.81667	0.3553024
10.83333	0.3554001
10.85	0.3558884
10.86667	0.3538376
10.88333	0.3495407
10.9	0.3484665
10.91667	0.3529587
10.93333	0.3597946
10.95	0.3621384
10.96667	0.3586227
10.98333	0.3512009
11	0.3464157
11.01667	0.340947
11.03333	0.3291306
11.05	0.3171188
11.06667	0.3193649
11.08333	0.3368454
11.1	0.3551071
11.11667	0.3616501
11.13333	0.3612595
11.15	0.3666306
11.16667	0.3803024
11.18333	0.3949509
11.2	0.4005173
11.21667	0.3957321
11.23333	0.3867477
11.25	0.3791305
11.26667	0.3720993
11.28333	0.3671188
11.3	0.3683884
11.31667	0.375029
11.33333	0.3810837
11.35	0.3827438
11.36667	0.384404
11.38333	0.3888962
11.4	0.3950485
11.41667	0.3951462
11.43333	0.3873337
11.45	0.3772751
11.46667	0.3772751
11.48333	0.3925095
11.5	0.4118454
11.51667	0.4202438
11.53333	0.4212204
11.55	0.4212204
11.56667	0.4236618
11.58333	0.4256149
11.6	0.4243454
11.61667	0.4202438
11.63333	0.4177048
11.65	0.4214157
11.66667	0.4325485
11.68333	0.4510055
11.7	0.4749313
11.71667	0.499736
11.73333	0.5190719
11.75	0.5363571
11.76667	0.5593063
11.78333	0.5883102
11.8	0.6179978
11.81667	0.6441696
11.83333	0.6685837
11.85	0.6911423
11.86667	0.7115524
11.88333	0.7347946
11.9	0.7578415
11.91667	0.7749313
11.93333	0.7826462
11.95	0.7867478
11.96667	0.7863571
11.98333	0.7779587
12	0.7673141
12.01667	0.7647751
12.03333	0.7668259
12.05	0.7621384
12.06667	0.7493454
12.08333	0.7335251
12.1	0.7169235
12.11667	0.703447
12.13333	0.6942673
12.15	0.6854782
12.16667	0.672197
12.18333	0.6593063
12.2	0.6550094
12.21667	0.6589157
12.23333	0.6611618
12.25	0.652568
12.26667	0.6315719
12.28333	0.6109665
12.3	0.6015915
12.31667	0.6100876
12.33333	0.6239548
12.35	0.6330368
12.36667	0.6350876
12.38333	0.6316696
12.4	0.6208298
12.41667	0.6037399
12.43333	0.5922165
12.45	0.5951462
12.46667	0.6081344
12.48333	0.6188766
12.5	0.6256149
12.51667	0.6316696
12.53333	0.6349899
12.55	0.6275681
12.56667	0.609111
12.58333	0.5911423
12.6	0.5851852
12.61667	0.590947
12.63333	0.5986618
12.65	0.6027634
12.66667	0.6024704
12.68333	0.5992478
12.7	0.5933884
12.71667	0.5884079
12.73333	0.5877243
12.75	0.590947
12.76667	0.5960251
12.78333	0.6003219
12.8	0.6013962
12.81667	0.5992478
12.83333	0.6002243
12.85	0.609697
12.86667	0.6197556
12.88333	0.6218063
12.9	0.6170212
12.91667	0.6148728
12.93333	0.6180954
12.95	0.6200485
12.96667	0.6169235
12.98333	0.6111618
13	0.6019821
13.01667	0.5911423
13.03333	0.587236
13.05	0.5983688
13.06667	0.6182907
13.08333	0.6330368
13.1	0.6385056
13.11667	0.640947
13.13333	0.6454391
13.15	0.6550094
13.16667	0.671611
13.18333	0.6940719
13.2	0.7167282
13.21667	0.7383102
13.23333	0.7564743
13.25	0.7709274
13.26667	0.7813767
13.28333	0.793193
13.3	0.8079392
13.31667	0.8228806
13.33333	0.8357712
13.35	0.8482712
13.36667	0.863115
13.38333	0.8782517
13.4	0.8893844
13.41667	0.8894821
13.43333	0.8814743
13.45	0.8769821
13.46667	0.8769821
13.48333	0.8735641
13.5	0.869072
13.51667	0.871611
13.53333	0.8780563
13.55	0.8799118
13.56667	0.8766891
13.58333	0.8735641
13.6	0.874736
13.61667	0.8837204
13.63333	0.8982712
13.65	0.9097946
13.66667	0.9114548
13.68333	0.9070603
13.7	0.9032516
13.71667	0.9029587
13.73333	0.9044235
13.75	0.9037399
13.76667	0.902861
13.78333	0.9043258
13.8	0.902861
13.81667	0.8911422
13.83333	0.8736618
13.85	0.8604782
13.86667	0.8550094
13.88333	0.8514938
13.9	0.8464157
13.91667	0.8390915
13.93333	0.8314743
13.95	0.8266891
13.96667	0.8263962
13.98333	0.828154
14	0.8329391
14.01667	0.8423141
14.03333	0.8589157
14.05	0.8852829
14.06667	0.9245407
14.08333	0.9804001
14.1	1.048955
14.11667	1.120439
14.13333	1.192314
14.15	1.268291
14.16667	1.350713
14.18333	1.435478
14.2	1.516338
14.21667	1.589482
14.23333	1.653056
14.25	1.70999
14.26667	1.760674
14.28333	1.801103
14.3	1.826494
14.31667	1.839092
14.33333	1.840556
14.35	1.826885
14.36667	1.796904
14.38333	1.757549
14.4	1.710576
14.41667	1.655302
14.43333	1.592705
14.45	1.524931
14.46667	1.456474
14.48333	1.393779
14.5	1.343193
14.51667	1.296611
14.53333	1.241728
14.55	1.177568
14.56667	1.116924
14.58333	1.072002
14.6	1.042217
14.61667	1.021709
14.63333	1.005107
14.65	0.9865524
14.66667	0.9578415
14.68333	0.9223922
14.7	0.8908493
14.71667	0.8703415
14.73333	0.8608688
14.75	0.859111
14.76667	0.8600876
14.78333	0.8577439
14.8	0.846904
14.81667	0.8345016
14.83333	0.8280563
14.85	0.8308884
14.86667	0.8361618
14.88333	0.8354782
14.9	0.8295212
14.91667	0.8242477
14.93333	0.8204392
14.95	0.8157517
14.96667	0.8106735
14.98333	0.8131149
15	0.821904
15.01667	0.8299118
15.03333	0.8350876
15.05	0.8416306
15.06667	0.8506149
15.08333	0.8579391
15.1	0.8576462
15.11667	0.853447
15.13333	0.8505173
15.15	0.8479782
15.16667	0.843779
15.18333	0.8392868
15.2	0.837236
15.21667	0.8362595
15.23333	0.8346969
15.25	0.8376266
15.26667	0.8458298
15.28333	0.8535446
15.3	0.853154
15.31667	0.8499314
15.33333	0.8493454
15.35	0.8494431
15.36667	0.8492478
15.38333	0.8523728
15.4	0.8577439
15.41667	0.8598922
15.43333	0.8561813
15.45	0.8472946
15.46667	0.8394821
15.48333	0.8385056
15.5	0.8465134
15.51667	0.8573532
15.53333	0.8667282
15.55	0.8748337
15.56667	0.8817673
15.58333	0.8848923
15.6	0.8845016
15.61667	0.8819626
15.63333	0.8804001
15.65	0.8847946
15.66667	0.8931931
15.68333	0.8973923
15.7	0.8914353
15.71667	0.8852829
15.73333	0.8862594
15.75	0.8918259
15.76667	0.9020798
15.78333	0.9149704
15.8	0.9258102
15.81667	0.925029
15.83333	0.9168259
15.85	0.9139938
15.86667	0.9200485
15.88333	0.9280564
15.9	0.9284469
15.91667	0.9233688
15.93333	0.9230759
15.95	0.9303024
15.96667	0.9377243
15.98333	0.9399704
16	0.9400681
16.01667	0.9391891
16.03333	0.9335251
16.05	0.9254196
16.06667	0.9194626
16.08333	0.9214157
16.1	0.9305954
16.11667	0.9442673
16.13333	0.9577438
16.15	0.9762009
16.16667	0.9996384
16.18333	1.02122
16.2	1.03958
16.21667	1.056572
16.23333	1.073564
16.25	1.086943
16.26667	1.101884
16.28333	1.124638
16.3	1.156963
16.31667	1.195439
16.33333	1.23792
16.35	1.288701
16.36667	1.350322
16.38333	1.419951
16.4	1.495927
16.41667	1.578252
16.43333	1.672002
16.45	1.790361
16.46667	1.950908
16.48333	2.170244
16.5	2.463017
16.51667	2.848271
16.53333	3.352568
16.55	4.004912
16.56667	4.831377
16.58333	5.850322
16.6	7.076201
16.61667	8.512334
16.63333	10.14817
16.65	11.9514
16.66667	13.86878
16.68333	15.83069
16.7	17.76292
16.71667	19.58997
16.73333	21.2349
16.75	22.62366
16.76667	23.69534
16.78333	24.41517
16.8	24.77601
16.81667	24.79339
16.83333	24.5015
16.85	23.94632
16.86667	23.19036
16.88333	22.30189
16.9	21.34359
16.91667	20.3682
16.93333	19.41429
16.95	18.50931
16.96667	17.66986
16.98333	16.89808
17	16.1848
17.01667	15.51849
17.03333	14.88509
17.05	14.26458
17.06667	13.63167
17.08333	12.97112
17.1	12.27972
17.11667	11.56116
17.13333	10.81907
17.15	10.06419
17.16667	9.312236
17.18333	8.579618
17.2	7.875127
17.21667	7.199638
17.23333	6.557744
17.25	5.95872
17.26667	5.415166
17.28333	4.9304
17.3	4.495927
17.31667	4.105205
17.33333	3.751298
17.35	3.431474
17.36667	3.147881
17.38333	2.905205
17.4	2.698076
17.41667	2.513115
17.43333	2.344756
17.45	2.193877
17.46667	2.060283
17.48333	1.941045
17.5	1.838213
17.51667	1.748662
17.53333	1.667705
17.55	1.596513
17.56667	1.537627
17.58333	1.488798
17.6	1.4429
17.61667	1.398857
17.63333	1.361845
17.65	1.335088
17.66667	1.320732
17.68333	1.318193
17.7	1.323564
17.71667	1.333525
17.73333	1.349931
17.75	1.37874
17.76667	1.420927
17.78333	1.477861
17.8	1.552861
17.81667	1.64583
17.83333	1.753154
17.85	1.873173
17.86667	2.002275
17.88333	2.136162
17.9	2.272978
17.91667	2.415263
17.93333	2.557842
17.95	2.682939
17.96667	2.776494
17.98333	2.835771
18	2.868877
18.01667	2.884306
18.03333	2.883427
18.05	2.854717
18.06667	2.790556
18.08333	2.705595
18.1	2.618681
18.11667	2.531279
18.13333	2.437724
18.15	2.337529
18.16667	2.236552
18.18333	2.139189
18.2	2.049736
18.21667	1.969658
18.23333	1.894853
18.25	1.824931
18.26667	1.766338
18.28333	1.720244
18.3	1.677666
18.31667	1.632646
18.33333	1.589873
18.35	1.555888
18.36667	1.524736
18.38333	1.488213
18.4	1.450615
18.41667	1.426103
18.43333	1.420635
18.45	1.421123
18.46667	1.415752
18.48333	1.401201
18.5	1.382646
18.51667	1.368291
18.53333	1.364189
18.55	1.368095
18.56667	1.368681
18.58333	1.361748
18.6	1.35247
18.61667	1.347685
18.63333	1.348467
18.65	1.353056
18.66667	1.361064
18.68333	1.365752
18.7	1.361845
18.71667	1.350029
18.73333	1.341142
18.75	1.339287
18.76667	1.341631
18.78333	1.340849
18.8	1.33372
18.81667	1.324736
18.83333	1.319365
18.85	1.317802
18.86667	1.317509
18.88333	1.315654
18.9	1.309502
18.91667	1.302373
18.93333	1.299736
18.95	1.304424
18.96667	1.314091
18.98333	1.324443
19	1.33206
19.01667	1.337041
19.03333	1.337529
19.05	1.334013
19.06667	1.331572
19.08333	1.333037
19.1	1.336845
19.11667	1.339677
19.13333	1.339775
19.15	1.335674
19.16667	1.329033
19.18333	1.324248
19.2	1.324931
19.21667	1.330888
19.23333	1.335771
19.25	1.333232
19.26667	1.323467
19.28333	1.313115
19.3	1.306279
19.31667	1.304228
19.33333	1.307256
19.35	1.313994
19.36667	1.317998
19.38333	1.316338
19.4	1.3179
19.41667	1.327177
19.43333	1.33831
19.45	1.343291
19.46667	1.348759
19.48333	1.367802
19.5	1.400517
19.51667	1.435771
19.53333	1.465263
19.55	1.491045
19.56667	1.517216
19.58333	1.548662
19.6	1.586162
19.61667	1.622978
19.63333	1.649736
19.65	1.669463
19.66667	1.693877
19.68333	1.726396
19.7	1.757256
19.71667	1.776006
19.73333	1.784502
19.75	1.787627
19.76667	1.782549
19.78333	1.765654
19.8	1.746416
19.81667	1.738994
19.83333	1.741533
19.85	1.741435
19.86667	1.731572
19.88333	1.716435
19.9	1.702861
19.91667	1.691728
19.93333	1.686357
19.95	1.687334
19.96667	1.687529
19.98333	1.684404
20	1.682158
20.01667	1.678349
20.03333	1.672295
20.05	1.672002
20.06667	1.677275
20.08333	1.67874
20.1	1.67249
20.11667	1.667705
20.13333	1.671904
20.15	1.678154
20.16667	1.678545
20.18333	1.675615
20.2	1.680009
20.21667	1.697099
20.23333	1.718095
20.25	1.741533
20.26667	1.769951
20.28333	1.804716
20.3	1.842119
20.31667	1.881865
20.33333	1.926884
20.35	1.977373
20.36667	2.030693
20.38333	2.082841
20.4	2.129521
20.41667	2.172685
20.43333	2.217216
20.45	2.260478
20.46667	2.290752
20.48333	2.302177
20.5	2.305888
20.51667	2.311845
20.53333	2.315263
20.55	2.30872
20.56667	2.300517
20.58333	2.301982
20.6	2.315263
20.61667	2.335967
20.63333	2.368388
20.65	2.415752
20.66667	2.475517
20.68333	2.546513
20.7	2.632549
20.71667	2.737041
20.73333	2.855986
20.75	2.98333
20.76667	3.110478
20.78333	3.228447
20.8	3.332549
20.81667	3.423662
20.83333	3.502666
20.85	3.563603
20.86667	3.600029
20.88333	3.612627
20.9	3.603447
20.91667	3.574834
20.93333	3.527275
20.95	3.464092
20.96667	3.39583
20.98333	3.330595
21	3.26292
21.01667	3.18206
21.03333	3.092705
21.05	3.014287
21.06667	2.958623
21.08333	2.91917
21.1	2.890556
21.11667	2.878252
21.13333	2.887431
21.15	2.913213
21.16667	2.946025
21.18333	2.983916
21.2	3.025615
21.21667	3.064677
21.23333	3.094951
21.25	3.121806
21.26667	3.149345
21.28333	3.171904
21.3	3.185771
21.31667	3.193974
21.33333	3.20374
21.35	3.220048
21.36667	3.248955
21.38333	3.294755
21.4	3.354619
21.41667	3.425224
21.43333	3.508623
21.45	3.614091
21.46667	3.741728
21.48333	3.878349
21.5	4.009111
21.51667	4.132842
21.53333	4.24417
21.55	4.330791
21.56667	4.38499
21.58333	4.408818
21.6	4.405498
21.61667	4.373076
21.63333	4.316728
21.65	4.245049
21.66667	4.167314
21.68333	4.091826
21.7	4.021611
21.71667	3.960674
21.73333	3.911943
21.75	3.871904
21.76667	3.832256
21.78333	3.796416
21.8	3.776006
21.81667	3.760381
21.83333	3.729131
21.85	3.673759
21.86667	3.604814
21.88333	3.5304
21.9	3.451005
21.91667	3.36331
21.93333	3.264385
21.95	3.151396
21.96667	3.02542
21.98333	2.893584
22	2.766338
22.01667	2.651982
22.03333	2.548955
22.05	2.454131
22.06667	2.368095
22.08333	2.293779
22.1	2.23333
22.11667	2.182256
22.13333	2.134892
22.15	2.091728
22.16667	2.054424
22.18333	2.021416
22.2	1.992509
22.21667	1.971416
22.23333	1.958427
22.25	1.946611
22.26667	1.935088
22.28333	1.931377
22.3	1.939482
22.31667	1.958232
22.33333	1.982646
22.35	2.005009
22.36667	2.01956
22.38333	2.030791
22.4	2.044853
22.41667	2.061943
22.43333	2.073271
22.45	2.071709
22.46667	2.060673
22.48333	2.048759
22.5	2.041337
22.51667	2.038799
22.53333	2.038506
22.55	2.036455
22.56667	2.029619
22.58333	2.014385
22.6	1.994365
22.61667	1.976494
22.63333	1.966435
22.65	1.960771
22.66667	1.956377
22.68333	1.955498
22.7	1.953447
22.71667	1.944951
22.73333	1.936064
22.75	1.94124
22.76667	1.963896
22.78333	1.997685
22.8	2.033623
22.81667	2.067412
22.83333	2.100322
22.85	2.14124
22.86667	2.197002
22.88333	2.265263
22.9	2.338701
22.91667	2.41458
22.93333	2.500127
22.95	2.607841
22.96667	2.750615
22.98333	2.935673
23	3.16751
23.01667	3.461259
23.03333	3.8429
23.05	4.333427
23.06667	4.943388
23.08333	5.680791
23.1	6.554521
23.11667	7.561162
23.13333	8.680986
23.15	9.888799
23.16667	11.15159
23.18333	12.43079
23.2	13.67903
23.21667	14.84485
23.23333	15.86907
23.25	16.69974
23.26667	17.30482
23.28333	17.67103
23.3	17.79466
23.31667	17.68099
23.33333	17.34485
23.35	16.81409
23.36667	16.12903
23.38333	15.33079
23.4	14.45384
23.41667	13.5305
23.43333	12.593
23.45	11.66878
23.46667	10.77171
23.48333	9.913213
23.5	9.105693
23.51667	8.362627
23.53333	7.689775
23.55	7.086064
23.56667	6.542021
23.58333	6.044267
23.6	5.59163
23.61667	5.189775
23.63333	4.838212
23.65	4.521708
23.66667	4.233232
23.68333	3.981865
23.7	3.774541
23.71667	3.60247
23.73333	3.457841
23.75	3.342412
23.76667	3.255009
23.78333	3.180302
23.8	3.104521
23.81667	3.03001
23.83333	2.966728
23.85	2.921709
23.86667	2.897197
23.88333	2.889385
23.9	2.887041
23.91667	2.877275
23.93333	2.86292
23.95	2.858232
23.96667	2.871025
23.98333	2.89417
24	2.918681
24.01667	2.944463
24.03333	2.975224
24.05	3.009892
24.06667	3.040752
24.08333	3.06165
24.1	3.076396
24.11667	3.08792
24.13333	3.097197
24.15	3.106084
24.16667	3.113506
24.18333	3.116338
24.2	3.112041
24.21667	3.106377
24.23333	3.108037
24.25	3.122978
24.26667	3.148174
24.28333	3.172881
24.3	3.190361
24.31667	3.202666
24.33333	3.217412
24.35	3.241631
24.36667	3.274052
24.38333	3.309306
24.4	3.338017
24.41667	3.351982
24.43333	3.35081
24.45	3.341728
24.46667	3.331767
24.48333	3.324345
24.5	3.316631
24.51667	3.306084
24.53333	3.300224
24.55	3.312041
24.56667	3.351592
24.58333	3.423857
24.6	3.53665
24.61667	3.709306
24.63333	3.969463
24.65	4.343389
24.66667	4.849443
24.68333	5.500127
24.7	6.310771
24.71667	7.299834
24.73333	8.476982
24.75	9.834404
24.76667	11.35179
24.78333	13.00052
24.8	14.75159
24.81667	16.57034
24.83333	18.39749
24.85	20.14613
24.86667	21.73529
24.88333	23.11644
24.9	24.25423
24.91667	25.11429
24.93333	25.67278
24.95	25.92591
24.96667	25.87621
24.98333	25.53402
25	24.9307
25.01667	24.12523
25.03333	23.17894
25.05	22.12913
25.06667	20.99964
25.08333	19.82327
25.1	18.6349
25.11667	17.45823
25.13333	16.31028
25.15	15.21487
25.16667	14.18968
25.18333	13.22864
25.2	12.31751
25.21667	11.45403
25.23333	10.64866
25.25	9.902178
25.26667	9.202861
25.28333	8.542119
25.3	7.918779
25.31667	7.339189
25.33333	6.809013
25.35	6.326201
25.36667	5.881865
25.38333	5.466533
25.4	5.084697
25.41667	4.745732
25.43333	4.451494
25.45	4.199443
25.46667	3.98499
25.48333	3.799345
25.5	3.632158
25.51667	3.484795
25.53333	3.367509
25.55	3.282841
25.56667	3.227275
25.58333	3.197685
25.6	3.186748
25.61667	3.188994
25.63333	3.198662
25.65	3.219072
25.66667	3.257939
25.68333	3.31497
25.7	3.380302
25.71667	3.43997
25.73333	3.493877
25.75	3.551689
25.76667	3.616045
25.78333	3.680986
25.8	3.740361
25.81667	3.794755
25.83333	3.843974
25.85	3.886455
25.86667	3.92708
25.88333	3.975322
25.9	4.034013
25.91667	4.09749
25.93333	4.156865
25.95	4.210869
25.96667	4.25833
25.98333	4.295341
26	4.319853
26.01667	4.330498
26.03333	4.328154
26.05	4.31624
26.06667	4.298467
26.08333	4.276885
26.1	4.24583
26.11667	4.199736
26.13333	4.134306
26.15	4.047587
26.16667	3.943388
26.18333	3.829814
26.2	3.715752
26.21667	3.608232
26.23333	3.510576
26.25	3.422295
26.26667	3.337724
26.28333	3.251884
26.3	3.163994
26.31667	3.079131
26.33333	3.003349
26.35	2.935478
26.36667	2.873173
26.38333	2.819072
26.4	2.777959
26.41667	2.751103
26.43333	2.73792
26.45	2.739384
26.46667	2.758427
26.48333	2.799931
26.5	2.868095
26.51667	2.965752
26.53333	3.086943
26.55	3.229228
26.56667	3.399443
26.58333	3.60042
26.6	3.81956
26.61667	4.042998
26.63333	4.268486
26.65	4.496611
26.66667	4.71956
26.68333	4.922685
26.7	5.095634
26.71667	5.232646
26.73333	5.332158
26.75	5.392021
26.76667	5.405986
26.78333	5.367607
26.8	5.284502
26.81667	5.171514
26.83333	5.043193
26.85	4.908037
26.86667	4.766923
26.88333	4.613799
26.9	4.446123
26.91667	4.268486
26.93333	4.08958
26.95	3.918193
26.96667	3.761943
26.98333	3.626103
27	3.51292
27.01667	3.416924
27.03333	3.32874
27.05	3.245244
27.06667	3.172099
27.08333	3.113213
27.1	3.063017
27.11667	3.015263
27.13333	2.970341
27.15	2.937236
27.16667	2.925127
27.18333	2.931572
27.2	2.944951
27.21667	2.963115
27.23333	3.003642
27.25	3.079228
27.26667	3.189482
27.28333	3.328642
27.3	3.497197
27.31667	3.709892
27.33333	3.979424
27.35	4.302861
27.36667	4.671318
27.38333	5.086943
27.4	5.558037
27.41667	6.073564
27.43333	6.610381
27.45	7.147881
27.46667	7.673564
27.48333	8.174833
27.5	8.639189
27.51667	9.046415
27.53333	9.377861
27.55	9.62542
27.56667	9.787822
27.58333	9.862041
27.6	9.84417
27.61667	9.738505
27.63333	9.553642
27.65	9.293291
27.66667	8.967509
27.68333	8.595634
27.7	8.203349
27.71667	7.805498
27.73333	7.403838
27.75	7.003447
27.76667	6.617119
27.78333	6.254228
27.8	5.908623
27.81667	5.575127
27.83333	5.264678
27.85	4.990849
27.86667	4.751592
27.88333	4.532256
27.9	4.326005
27.91667	4.135576
27.93333	3.968584
27.95	3.827666
27.96667	3.710869
27.98333	3.613017
28	3.528935
28.01667	3.455791
28.03333	3.389775
28.05	3.323857
28.06667	3.259795
28.08333	3.20667
28.1	3.167998
28.11667	3.13665
28.13333	3.102666
28.15	3.064091
28.16667	3.023955
28.18333	2.987822
28.2	2.958232
28.21667	2.936357
28.23333	2.920244
28.25	2.909306
28.26667	2.905107
28.28333	2.914092
28.3	2.940166
28.31667	2.97122
28.33333	2.9929
28.35	3.005693
28.36667	3.031767
28.38333	3.087431
28.4	3.165068
28.41667	3.245146
28.43333	3.318388
28.45	3.389385
28.46667	3.461943
28.48333	3.534209
28.5	3.606474
28.51667	3.684013
28.53333	3.76917
28.55	3.855595
28.56667	3.934306
28.58333	4.005693
28.6	4.07581
28.61667	4.148173
28.63333	4.219072
28.65	4.285185
28.66667	4.347588
28.68333	4.406084
28.7	4.459404
28.71667	4.50042
28.73333	4.524931
28.75	4.533232
28.76667	4.528056
28.78333	4.505986
28.8	4.463212
28.81667	4.398369
28.83333	4.321416
28.85	4.241435
28.86667	4.161357
28.88333	4.077861
28.9	3.98792
28.91667	3.897783
28.93333	3.818193
28.95	3.751787
28.96667	3.688896
28.98333	3.624345
29	3.567509
29.01667	3.531767
29.03333	3.51624
29.05	3.516435
29.06667	3.532646
29.08333	3.562627
29.1	3.596806
29.11667	3.631377
29.13333	3.680498
29.15	3.761357
29.16667	3.876884
29.18333	4.021025
29.2	4.194756
29.21667	4.406572
29.23333	4.659892
29.25	4.946025
29.26667	5.252177
29.28333	5.574052
29.3	5.913506
29.31667	6.269072
29.33333	6.626103
29.35	6.960185
29.36667	7.246709
29.38333	7.47249
29.4	7.640361
29.41667	7.753154
29.43333	7.80374
29.45	7.782842
29.46667	7.689482
29.48333	7.536064
29.5	7.33499
29.51667	7.098955
29.53333	6.84163
29.55	6.573174
29.56667	6.293096
29.58333	6.005595
29.6	5.727959
29.61667	5.47249
29.63333	5.234306
29.65	5.007353
29.66667	4.793193
29.68333	4.596513
29.7	4.4179
29.71667	4.258134
29.73333	4.114189
29.75	3.981279
29.76667	3.862822
29.78333	3.76292
29.8	3.678545
29.81667	3.599443
29.83333	3.522588
29.85	3.451298
29.86667	3.386357
29.88333	3.327666
29.9	3.276299
29.91667	3.236455
29.93333	3.209697
29.95	3.196513
29.96667	3.192314
29.98333	3.197099
30	3.217119
30.01667	3.256865
30.03333	3.314384
30.05	3.394365
30.06667	3.501494
30.08333	3.629033
30.1	3.757451
30.11667	3.881963
30.13333	4.01917
30.15	4.180498
30.16667	4.352373
30.18333	4.518291
30.2	4.679717
30.21667	4.849052
30.23333	5.031377
30.25	5.22874
30.26667	5.455302
30.28333	5.729033
30.3	6.061553
30.31667	6.460478
30.33333	6.936357
30.35	7.503935
30.36667	8.170341
30.38333	8.928935
30.4	9.76331
30.41667	10.65159
30.43333	11.56067
30.45	12.45228
30.46667	13.30013
30.48333	14.0802
30.5	14.75589
30.51667	15.28919
30.53333	15.65403
30.55	15.84114
30.56667	15.84905
30.58333	15.68968
30.6	15.38089
30.61667	14.94271
30.63333	14.39905
30.65	13.77483
30.66667	13.09241
30.68333	12.36966
30.7	11.62601
30.71667	10.88987
30.73333	10.18831
30.75	9.534502
30.76667	8.926104
30.78333	8.355497
30.8	7.818388
30.81667	7.324052
30.83333	6.885869
30.85	6.502763
30.86667	6.157548
30.88333	5.842314
30.9	5.565361
30.91667	5.328935
30.93333	5.124345
30.95	4.940459
30.96667	4.771708
30.98333	4.61956
31	4.485087
31.01667	4.367314
31.03333	4.26165
31.05	4.162627
31.06667	4.067021
31.08333	3.976884
31.1	3.901103
31.11667	3.840752
31.13333	3.78499
31.15	3.722783
31.16667	3.653447
31.18333	3.587431
31.2	3.533818
31.21667	3.492217
31.23333	3.455791
31.25	3.420439
31.26667	3.389287
31.28333	3.365654
31.3	3.346709
31.31667	3.332549
31.33333	3.327763
31.35	3.339189
31.36667	3.363506
31.38333	3.387529
31.4	3.407548
31.41667	3.423271
31.43333	3.432451
31.45	3.433818
31.46667	3.432744
31.48333	3.431474
31.5	3.425713
31.51667	3.415556
31.53333	3.408037
31.55	3.403349
31.56667	3.391435
31.58333	3.369853
31.6	3.343291
31.61667	3.320146
31.63333	3.302959
31.65	3.289775
31.66667	3.270634
31.68333	3.241826
31.7	3.209599
31.71667	3.181181
31.73333	3.159599
31.75	3.141435
31.76667	3.128935
31.78333	3.127373
31.8	3.138505
31.81667	3.153642
31.83333	3.159111
31.85	3.156767
31.86667	3.15667
31.88333	3.162529
31.9	3.170244
31.91667	3.17581
31.93333	3.179912
31.95	3.18792
31.96667	3.201494
31.98333	3.218584
32	3.237041
32.01667	3.256474
32.03333	3.279423
32.05	3.300517
32.06667	3.318486
32.08333	3.339775
32.1	3.371416
32.11667	3.405986
32.13333	3.433623
32.15	3.454912
32.16667	3.474345
32.18333	3.492998
32.2	3.50999
32.21667	3.52747
32.23333	3.540361
32.25	3.545048
32.26667	3.544365
32.28333	3.5429
32.3	3.539677
32.31667	3.533134
32.33333	3.521318
32.35	3.504326
32.36667	3.483818
32.38333	3.46497
32.4	3.4554
32.41667	3.447881
32.43333	3.432939
32.45	3.411845
32.46667	3.389287
32.48333	3.369853
32.5	3.35208
32.51667	3.335869
32.53333	3.319365
32.55	3.303642
32.56667	3.296025
32.58333	3.294755
32.6	3.290361
32.61667	3.278935
32.63333	3.260576
32.65	3.236259
32.66667	3.210869
32.68333	3.198857
32.7	3.20042
32.71667	3.199248
32.73333	3.189775
32.75	3.186455
32.76667	3.19417
32.78333	3.197197
32.8	3.184502
32.81667	3.167021
32.83333	3.156279
32.85	3.149052
32.86667	3.136162
32.88333	3.117607
32.9	3.098466
32.91667	3.084306
32.93333	3.077861
32.95	3.077568
32.96667	3.080791
32.98333	3.082744
33	3.07874
33.01667	3.066435
33.03333	3.050908
33.05	3.046123
33.06667	3.05706
33.08333	3.07747
33.1	3.097392
33.11667	3.119951
33.13333	3.151201
33.15	3.196513
33.16667	3.254033
33.18333	3.319463
33.2	3.388505
33.21667	3.460381
33.23333	3.538115
33.25	3.625615
33.26667	3.723076
33.28333	3.824443
33.3	3.920537
33.31667	4.006865
33.33333	4.085967
33.35	4.156767
33.36667	4.21165
33.38333	4.243095
33.4	4.253057
33.41667	4.246416
33.43333	4.222685
33.45	4.183135
33.46667	4.131572
33.48333	4.073174
33.5	4.009209
33.51667	3.941728
33.53333	3.876396
33.55	3.815849
33.56667	3.757842
33.58333	3.703935
33.6	3.655107
33.61667	3.611064
33.63333	3.570537
33.65	3.534599
33.66667	3.500127
33.68333	3.463017
33.7	3.423662
33.71667	3.387334
33.73333	3.35501
33.75	3.324443
33.76667	3.298857
33.78333	3.28333
33.8	3.273857
33.81667	3.261943
33.83333	3.250127
33.85	3.243095
33.86667	3.241533
33.88333	3.240263
33.9	3.23831
33.91667	3.237334
33.93333	3.234697
33.95	3.231474
33.96667	3.233428
33.98333	3.245244
34	3.263213
34.01667	3.276299
34.03333	3.27581
34.05	3.267021
34.06667	3.262236
34.08333	3.264091
34.1	3.267412
34.11667	3.271611
34.13333	3.274248
34.15	3.274541
34.16667	3.271416
34.18333	3.264385
34.2	3.254912
34.21667	3.244365
34.23333	3.239091
34.25	3.242412
34.26667	3.249248
34.28333	3.251103
34.3	3.243974
34.31667	3.232353
34.33333	3.221709
34.35	3.212529
34.36667	3.199931
34.38333	3.185283
34.4	3.177275
34.41667	3.179131
34.43333	3.186455
34.45	3.19417
34.46667	3.199248
34.48333	3.201005
34.5	3.199541
34.51667	3.198662
34.53333	3.198662
34.55	3.197685
34.56667	3.19622
34.58333	3.196318
34.6	3.198564
34.61667	3.204326
34.63333	3.215654
34.65	3.23001
34.66667	3.23958
34.68333	3.242412
34.7	3.242607
34.71667	3.243193
34.73333	3.244951
34.75	3.244658
34.76667	3.239287
34.78333	3.231963
34.8	3.224834
34.81667	3.224638
34.83333	3.231084
34.85	3.238213
34.86667	3.241924
34.88333	3.242509
34.9	3.240849
34.91667	3.23792
34.93333	3.239287
34.95	3.246416
34.96667	3.248369
34.98333	3.238896
35	3.226396
35.01667	3.218681
35.03333	3.214287
35.05	3.211357
35.06667	3.215849
35.08333	3.230888
35.1	3.24622
35.11667	3.254326
35.13333	3.256279
35.15	3.254619
35.16667	3.251982
35.18333	3.251689
35.2	3.256572
35.21667	3.263701
35.23333	3.267509
35.25	3.26956
35.26667	3.273662
35.28333	3.275908
35.3	3.271513
35.31667	3.260869
35.33333	3.253838
35.35	3.257451
35.36667	3.269267
35.38333	3.27708
35.4	3.272881
35.41667	3.263115
35.43333	3.261455
35.45	3.271318
35.46667	3.28792
35.48333	3.302373
35.5	3.306865
35.51667	3.30081
35.53333	3.292314
35.55	3.286162
35.56667	3.28167
35.58333	3.278935
35.6	3.277959
35.61667	3.277275
35.63333	3.279912
35.65	3.289873
35.66667	3.301103
35.68333	3.301396
35.7	3.293193
35.71667	3.289775
35.73333	3.296611
35.75	3.306377
35.76667	3.311455
35.78333	3.309697
35.8	3.304033
35.81667	3.29583
35.83333	3.287041
35.85	3.284795
35.86667	3.295341
35.88333	3.312627
35.9	3.323271
35.91667	3.322978
35.93333	3.316826
35.95	3.307744
35.96667	3.301787
35.98333	3.303545
36	3.313603
36.01667	3.323174
36.03333	3.324248
36.05	3.315556
36.06667	3.309306
36.08333	3.320634
36.1	3.340068
36.11667	3.350517
36.13333	3.342412
36.15	3.328935
36.16667	3.326787
36.18333	3.333916
36.2	3.335869
36.21667	3.329716
36.23333	3.329619
36.25	3.343584
36.26667	3.35999
36.28333	3.365654
36.3	3.362431
36.31667	3.361455
36.33333	3.369756
36.35	3.382939
36.36667	3.388701
36.38333	3.377763
36.4	3.357744
36.41667	3.34622
36.43333	3.352959
36.45	3.367217
36.46667	3.374541
36.48333	3.37376
36.5	3.372295
36.51667	3.374834
36.53333	3.376298
36.55	3.373076
36.56667	3.372099
36.58333	3.381181
36.6	3.394365
36.61667	3.398564
36.63333	3.393681
36.65	3.391338
36.66667	3.395341
36.68333	3.403056
36.7	3.411552
36.71667	3.417412
36.73333	3.419365
36.75	3.42083
36.76667	3.422002
36.78333	3.421123
36.8	3.418095
36.81667	3.417119
36.83333	3.419365
36.85	3.422881
36.86667	3.425713
36.88333	3.426396
36.9	3.426201
36.91667	3.426201
36.93333	3.426201
36.95	3.426982
36.96667	3.428838
36.98333	3.431279
37	3.435869
37.01667	3.43997
37.03333	3.436162
37.05	3.42708
37.06667	3.426299
37.08333	3.440849
37.1	3.460869
37.11667	3.472881
37.13333	3.472099
37.15	3.466338
37.16667	3.464385
37.18333	3.465166
37.2	3.461259
37.21667	3.451787
37.23333	3.443974
37.25	3.444267
37.26667	3.45042
37.28333	3.456865
37.3	3.462138
37.31667	3.466142
37.33333	3.470537
37.35	3.479131
37.36667	3.493193
37.38333	3.503545
37.4	3.501591
37.41667	3.492119
37.43333	3.487529
37.45	3.497783
37.46667	3.518486
37.48333	3.536259
37.5	3.540068
37.51667	3.531767
37.53333	3.516826
37.55	3.504424
37.56667	3.500224
37.58333	3.504619
37.6	3.512138
37.61667	3.517509
37.63333	3.522588
37.65	3.524248
37.66667	3.518681
37.68333	3.515849
37.7	3.52581
37.71667	3.540166
37.73333	3.54456
37.75	3.539287
37.76667	3.533916
37.78333	3.530693
37.8	3.5304
37.81667	3.536845
37.83333	3.547295
37.85	3.550713
37.86667	3.543877
37.88333	3.535869
37.9	3.533037
37.91667	3.540263
37.93333	3.555205
37.95	3.568193
37.96667	3.566728
37.98333	3.554131
38	3.546904
38.01667	3.550615
38.03333	3.555009
38.05	3.553056
38.06667	3.552275
38.08333	3.562041
38.1	3.574345
38.11667	3.578154
38.13333	3.576396
38.15	3.57542
38.16667	3.571025
38.18333	3.55833
38.2	3.548955
38.21667	3.550908
38.23333	3.559013
38.25	3.56497
38.26667	3.564873
38.28333	3.562627
38.3	3.558232
38.31667	3.558623
38.33333	3.57122
38.35	3.591338
38.36667	3.607158
38.38333	3.609599
38.4	3.604521
38.41667	3.599443
38.43333	3.594658
38.45	3.590361
38.46667	3.589092
38.48333	3.5929
38.5	3.604717
38.51667	3.622295
38.53333	3.637138
38.55	3.640459
38.56667	3.633232
38.58333	3.622783
38.6	3.616338
38.61667	3.61624
38.63333	3.620537
38.65	3.622685
38.66667	3.618974
38.68333	3.613213
38.7	3.611748
38.71667	3.615166
38.73333	3.617314
38.75	3.620342
38.76667	3.628935
38.78333	3.640166
38.8	3.644463
38.81667	3.644072
38.83333	3.649541
38.85	3.661162
38.86667	3.671416
38.88333	3.675224
38.9	3.672002
38.91667	3.664384
38.93333	3.65872
38.95	3.660088
38.96667	3.667607
38.98333	3.67581
39	3.681767
39.01667	3.684502
39.03333	3.680888
39.05	3.674541
39.06667	3.677666
39.08333	3.695927
39.1	3.716826
39.11667	3.729424
39.13333	3.734209
39.15	3.736357
39.16667	3.73792
39.18333	3.74456
39.2	3.764189
39.21667	3.794365
39.23333	3.820634
39.25	3.83167
39.26667	3.83792
39.28333	3.854814
39.3	3.88372
39.31667	3.91292
39.33333	3.933916
39.35	3.953447
39.36667	3.977568
39.38333	4.003642
39.4	4.021708
39.41667	4.034404
39.43333	4.05667
39.45	4.091728
39.46667	4.128545
39.48333	4.157548
39.5	4.180303
39.51667	4.204033
39.53333	4.229326
39.55	4.25413
39.56667	4.282451
39.58333	4.318877
39.6	4.360673
39.61667	4.399053
39.63333	4.43665
39.65	4.479228
39.66667	4.523173
39.68333	4.565263
39.7	4.611455
39.71667	4.662236
39.73333	4.702568
39.75	4.721318
39.76667	4.731474
39.78333	4.755986
39.8	4.805205
39.81667	4.864873
39.83333	4.915263
39.85	4.953447
39.86667	4.987041
39.88333	5.021123
39.9	5.058916
39.91667	5.103545
39.93333	5.148564
39.95	5.186553
39.96667	5.220634
39.98333	5.258818
40	5.301494
40.01667	5.345439
40.03333	5.391923
40.05	5.440947
40.06667	5.490752
40.08333	5.538017
40.1	5.582158
40.11667	5.624639
40.13333	5.667412
40.15	5.710576
40.16667	5.757842
40.18333	5.810674
40.2	5.862627
40.21667	5.904912
40.23333	5.938798
40.25	5.978056
40.26667	6.028544
40.28333	6.082255
40.3	6.128838
40.31667	6.168486
40.33333	6.209208
40.35	6.255205
40.36667	6.305498
40.38333	6.358818
40.4	6.413798
40.41667	6.468486
40.43333	6.520146
40.45	6.565263
40.46667	6.600615
40.48333	6.630791
40.5	6.662627
40.51667	6.700419
40.53333	6.743486
40.55	6.790459
40.56667	6.836553
40.58333	6.877568
40.6	6.918584
40.61667	6.969267
40.63333	7.033134
40.65	7.101689
40.66667	7.165751
40.68333	7.220634
40.7	7.262627
40.71667	7.28997
40.73333	7.302958
40.75	7.304033
40.76667	7.290947
40.78333	7.266142
40.8	7.240654
40.81667	7.220048
40.83333	7.203935
40.85	7.185869
40.86667	7.169072
40.88333	7.162627
40.9	7.171318
40.91667	7.190654
40.93333	7.209306
40.95	7.220439
40.96667	7.228837
40.98333	7.239482
41	7.250517
41.01667	7.259501
41.03333	7.267607
41.05	7.275712
41.06667	7.281181
41.08333	7.286357
41.1	7.293877
41.11667	7.305303
41.13333	7.32122
41.15	7.340166
41.16667	7.362138
41.18333	7.379326
41.2	7.393193
41.21667	7.410674
41.23333	7.43333
41.25	7.457451
41.26667	7.47874
41.28333	7.498955
41.3	7.517314
41.31667	7.52913
41.33333	7.535966
41.35	7.547587
41.36667	7.568583
41.38333	7.594267
41.4	7.620927
41.41667	7.647978
41.43333	7.674345
41.45	7.698369
41.46667	7.715361
41.48333	7.727763
41.5	7.737432
41.51667	7.741533
41.53333	7.742021
41.55	7.746709
41.56667	7.763799
41.58333	7.790166
41.6	7.81956
41.61667	7.847392
41.63333	7.865849
41.65	7.870341
41.66667	7.874443
41.68333	7.88997
41.7	7.912431
41.71667	7.928838
41.73333	7.944463
41.75	7.963603
41.76667	7.981669
41.78333	7.989385
41.8	7.989775
41.81667	7.994951
41.83333	8.011357
41.85	8.033427
41.86667	8.051786
41.88333	8.063993
41.9	8.072294
41.91667	8.080889
41.93333	8.094561
41.95	8.11624
41.96667	8.138994
41.98333	8.155986
42	8.163213
42.01667	8.165361
42.03333	8.164775
42.05	8.163506
42.06667	8.167509
42.08333	8.180693
42.1	8.196611
42.11667	8.204717
42.13333	8.205107
42.15	8.207939
42.16667	8.22083
42.18333	8.238701
42.2	8.24954
42.21667	8.254619
42.23333	8.26165
42.25	8.273272
42.26667	8.280107
42.28333	8.278252
42.3	8.274931
42.31667	8.276494
42.33333	8.285088
42.35	8.295537
42.36667	8.304228
42.38333	8.307646
42.4	8.30833
42.41667	8.31497
42.43333	8.325419
42.45	8.33499
42.46667	8.345537
42.48333	8.355107
42.5	8.356474
42.51667	8.349638
42.53333	8.347099
42.55	8.352861
42.56667	8.355009
42.58333	8.347099
42.6	8.343584
42.61667	8.354521
42.63333	8.371904
42.65	8.377177
42.66667	8.367216
42.68333	8.356377
42.7	8.357646
42.71667	8.370049
42.73333	8.383329
42.75	8.389677
42.76667	8.389482
42.78333	8.389384
42.8	8.390556
42.81667	8.387431
42.83333	8.377275
42.85	8.36497
42.86667	8.350029
42.88333	8.325712
42.9	8.290947
42.91667	8.255205
42.93333	8.22874
42.95	8.217802
42.96667	8.229424
42.98333	8.261553
43	8.301298
43.01667	8.334208
43.03333	8.355596
43.05	8.37415
43.06667	8.398173
43.08333	8.425127
43.1	8.448369
43.11667	8.456083
43.13333	8.440557
43.15	8.395439
43.16667	8.319267
43.18333	8.212138
43.2	8.072685
43.21667	7.90413
43.23333	7.708232
43.25	7.484306
43.26667	7.232646
43.28333	6.967607
43.3	6.708623
43.31667	6.465361
43.33333	6.23792
43.35	6.023857
43.36667	5.821025
43.38333	5.630791
43.4	5.453447
43.41667	5.288994
43.43333	5.135185
43.45	4.990752
43.46667	4.854619
43.48333	4.719365
43.5	4.580107
43.51667	4.436455
43.53333	4.296709
43.55	4.16751
43.56667	4.044755
43.58333	3.923466
43.6	3.802568
43.61667	3.686845
43.63333	3.58167
43.65	3.485185
43.66667	3.386455
43.68333	3.281865
43.7	3.179033
43.71667	3.084306
43.73333	2.992998
43.75	2.901982
43.76667	2.812041
43.78333	2.722295
43.8	2.630986
43.81667	2.546904
43.83333	2.475029
43.85	2.409306
43.86667	2.340263
43.88333	2.264189
43.9	2.18665
43.91667	2.115849
43.93333	2.051201
43.95	1.985381
43.96667	1.914873
43.98333	1.844072
44	1.77542
44.01667	1.710869
44.03333	1.650224
44.05	1.592314
44.06667	1.537334
44.08333	1.489482
44.1	1.445927
44.11667	1.401494
44.13333	1.356377
44.15	1.319267
44.16667	1.291142
44.18333	1.261943
44.2	1.227373
44.21667	1.189775
44.23333	1.15706
44.25	1.128545
44.26667	1.101494
44.28333	1.074931
44.3	1.048759
44.31667	1.024052
44.33333	0.9976853
44.35	0.9676071
44.36667	0.9400681
44.38333	0.9229782
44.4	0.9130173
44.41667	0.8986618
44.43333	0.8773727
44.45	0.8537399
44.46667	0.8257126
44.48333	0.7952439
44.5	0.7757126
44.51667	0.7688767
44.53333	0.7641891
44.55	0.7489548
44.56667	0.7225876
44.58333	0.6910446
44.6	0.6634079
44.61667	0.6432907
44.63333	0.6274704
44.65	0.6119431
44.66667	0.5949509
44.68333	0.5805954
44.7	0.5661423
44.71667	0.5467087
44.73333	0.5205368
44.75	0.4956345
44.76667	0.4825485
44.78333	0.4699509
44.8	0.4418259
44.81667	0.4050094
44.83333	0.3855759
44.85	0.3868454
44.86667	0.3840134
44.88333	0.3637009
44.9	0.3300095
44.91667	0.2956344
44.93333	0.2696579
44.95	0.2543259
44.96667	0.2446579
44.98333	0.2324509
45	0.2172165
45.01667	0.2042282
45.03333	0.1968063
45.05	0.194072
45.06667	0.1925095
45.08333	0.1879196
45.1	0.1806931
45.11667	0.175029
45.13333	0.1715134
45.15	0.169072
45.16667	0.1620407
45.18333	0.1475876
45.2	0.1297165
45.21667	0.1165329
45.23333	0.1106735
45.25	0.1051071
45.26667	0.09231415
45.28333	0.07834931
45.3	0.07541962
45.31667	0.08713837
45.33333	0.09631805
45.35	0.08762665
45.36667	0.06711884
45.38333	0.0524704
45.4	0.05129852
45.41667	0.05520477
45.43333	0.05540008
45.45	0.04661102
45.46667	0.03079071
45.48333	0.0165329
45.5	0.01731415
45.51667	0.02512665
45.53333	0.02180634
45.55	0.006474304
45.56667	-0.007295227
45.58333	-0.01032257
45.6	-0.006611633
45.61667	-0.003291321
45.63333	-0.00280304
45.65	-0.005830383
45.66667	-0.01012726
45.68333	-0.01208038
45.7	-0.008662415
45.71667	-0.001045227
45.73333	0.00500946
45.75	0.006376648
45.76667	0.006376648
45.78333	0.005302429
45.8	-0.002607727
45.81667	-0.02126007
45.83333	-0.04108429
45.85	-0.0506546
45.86667	-0.04792023
45.88333	-0.03913116
45.9	-0.03112335
45.91667	-0.03014679
45.93333	-0.03952179
45.95	-0.05329132
45.96667	-0.06090851
45.98333	-0.06012726
46	-0.05973663
46.01667	-0.06637726
46.03333	-0.07594757
46.05	-0.08288117
46.06667	-0.08688507
46.08333	-0.08952179
46.1	-0.09010772
46.11667	-0.08493195
46.13333	-0.07331085
46.15	-0.06110382
46.16667	-0.05670929
46.18333	-0.05788117
46.2	-0.05631866
46.21667	-0.0513382
46.23333	-0.05153351
46.25	-0.06071319
46.26667	-0.07057647
46.28333	-0.07194366
46.3	-0.06667022
46.31667	-0.06461944
46.33333	-0.07077179
46.35	-0.08083038
46.36667	-0.08542023
46.38333	-0.08112335
46.4	-0.0732132
46.41667	-0.07331085
46.43333	-0.08756866
46.45	-0.1055374
46.46667	-0.1126663
46.48333	-0.1099319
46.5	-0.1071976
46.51667	-0.1076858
46.53333	-0.1067093
46.55	-0.1003616
46.56667	-0.09059601
46.58333	-0.08122101
46.6	-0.07692413
46.61667	-0.07799836
46.63333	-0.08063507
46.65	-0.08219757
46.66667	-0.08415069
46.68333	-0.08620147
46.7	-0.0850296
46.71667	-0.08317413
46.73333	-0.08717804
46.75	-0.09918976
46.76667	-0.1131546
46.78333	-0.1214554
46.8	-0.1237991
46.81667	-0.1188187
46.83333	-0.109346
46.85	-0.100264
46.86667	-0.09938507
46.88333	-0.1027054
46.9	-0.1043655
46.91667	-0.1012405
46.93333	-0.09987335
46.95	-0.1017288
46.96667	-0.1027054
46.98333	-0.09948273
47	-0.0966507
47.01667	-0.09879913
47.03333	-0.1054398
47.05	-0.1089554
47.06667	-0.1081741
47.08333	-0.1074905
47.1	-0.1084671
47.11667	-0.1072952
47.13333	-0.105928
47.15	-0.1081741
47.16667	-0.1104202
47.18333	-0.1088577
47.2	-0.1060257
47.21667	-0.1032913
47.23333	-0.09977569
47.25	-0.09469757
47.26667	-0.08893585
47.28333	-0.08454132
47.3	-0.08493195
47.31667	-0.09264679
47.33333	-0.1029984
47.35	-0.1076858
47.36667	-0.106221
47.38333	-0.1070999
47.4	-0.1128616
47.41667	-0.1183304
47.43333	-0.1163773
47.45	-0.1097366
47.46667	-0.1064163
47.48333	-0.1089554
47.5	-0.1143265
47.51667	-0.1163773
47.53333	-0.1142288
47.55	-0.1119827
47.56667	-0.115596
47.58333	-0.1225296
47.6	-0.1255569
47.61667	-0.1232132
47.63333	-0.1226273
47.65	-0.1270218
47.66667	-0.1286819
47.68333	-0.1216507
47.7	-0.1117874
47.71667	-0.1087601
47.73333	-0.1118851
47.75	-0.1120804
47.76667	-0.1089554
47.78333	-0.1085648
47.8	-0.1099319
47.81667	-0.1088577
47.83333	-0.1066116
47.85	-0.1071976
47.86667	-0.1112991
47.88333	-0.1180374
47.9	-0.1248734
47.91667	-0.1264358
47.93333	-0.1198929
47.95	-0.1085648
47.96667	-0.09840851
47.98333	-0.09684601
48	-0.1041702
48.01667	-0.1148148
48.03333	-0.1195999
48.05	-0.1159866
48.06667	-0.1098343
48.08333	-0.1083694
48.1	-0.1125687
48.11667	-0.1196976
48.13333	-0.1261429
48.15	-0.130928
48.16667	-0.1325882
48.18333	-0.1323929
48.2	-0.1342483
48.21667	-0.134639
48.23333	-0.1258499
48.25	-0.1083694
48.26667	-0.09352569
48.28333	-0.08678742
48.3	-0.08385773
48.31667	-0.08366241
48.33333	-0.08932648
48.35	-0.1015335
48.36667	-0.1139359
48.38333	-0.1195023
48.4	-0.1157913
48.41667	-0.1031937
48.43333	-0.0888382
48.45	-0.07995148
48.46667	-0.07985382
48.48333	-0.0850296
48.5	-0.08913116
48.51667	-0.08795929
48.53333	-0.08209991
48.55	-0.07594757
48.56667	-0.07536163
48.58333	-0.07956085
48.6	-0.08493195
48.61667	-0.08942413
48.63333	-0.09225617
48.65	-0.09079132
48.66667	-0.0865921
48.68333	-0.08561554
48.7	-0.09069367
48.71667	-0.09840851
48.73333	-0.1019241
48.75	-0.09713898
48.76667	-0.08834992
48.78333	-0.08532257
48.8	-0.09235382
48.81667	-0.1037796
48.83333	-0.1094437
48.85	-0.106514
48.86667	-0.09977569
48.88333	-0.09577179
48.9	-0.09352569
48.91667	-0.09196319
48.93333	-0.09606476
48.95	-0.1070023
48.96667	-0.1117874
48.98333	-0.1039749
49	-0.09411164
49.01667	-0.09459992
49.03333	-0.09879913
49.05	-0.09567413
49.06667	-0.08473663
49.08333	-0.07360382
49.1	-0.06969757
49.11667	-0.07467804
49.13333	-0.08405304
49.15	-0.09225617
49.16667	-0.09586944
49.18333	-0.0950882
49.2	-0.09176788
49.21667	-0.08795929
49.23333	-0.08639679
49.25	-0.08473663
49.26667	-0.08219757
49.28333	-0.08043976
49.3	-0.07868195
49.31667	-0.07516632
49.33333	-0.07194366
49.35	-0.07272492
49.36667	-0.0772171
49.38333	-0.08278351
49.4	-0.08922882
49.41667	-0.09489288
49.43333	-0.09606476
49.45	-0.09420929
49.46667	-0.09137726
49.48333	-0.08483429
49.5	-0.07418976
49.51667	-0.06725617
49.53333	-0.07077179
49.55	-0.07790069
49.56667	-0.08063507
49.58333	-0.08083038
49.6	-0.08297882
49.61667	-0.08493195
49.63333	-0.08307648
49.65	-0.08004913
49.66667	-0.08161163
49.68333	-0.08522491
49.7	-0.08717804
49.71667	-0.08786163
49.73333	-0.09206085
49.75	-0.1008499
49.76667	-0.1088577
49.78333	-0.1060257
49.8	-0.09323273
49.81667	-0.08317413
49.83333	-0.08571319
49.85	-0.09626007
49.86667	-0.0990921
49.88333	-0.0888382
49.9	-0.07399444
49.91667	-0.06686554
49.93333	-0.0756546
49.95	-0.09723663
49.96667	-0.1188187
49.98333	-0.1229202
50	-0.1111038
50.01667	-0.09889679
50.03333	-0.09762726
50.05	-0.09860382
50.06667	-0.09684601
50.08333	-0.09616242
50.1	-0.09499054
50.11667	-0.09030304
50.13333	-0.08893585
50.15	-0.09752961
50.16667	-0.1137405
50.18333	-0.1267288
50.2	-0.1308304
50.21667	-0.1233108
50.23333	-0.1080765
50.25	-0.09069367
50.26667	-0.07536163
50.28333	-0.0654007
50.3	-0.06413116
50.31667	-0.07106476
50.33333	-0.07887726
50.35	-0.08356476
50.36667	-0.08639679
50.38333	-0.09020539
50.4	-0.09958038
50.41667	-0.1094437
50.43333	-0.106221
50.45	-0.09098663
50.46667	-0.08004913
50.48333	-0.08424835
50.5	-0.1008499
50.51667	-0.119014
50.53333	-0.1297562
50.55	-0.1289749
50.56667	-0.1166702
50.58333	-0.09860382
50.6	-0.08668976
50.61667	-0.08590851
50.63333	-0.09088898
50.65	-0.09001007
50.66667	-0.08170929
50.68333	-0.07692413
50.7	-0.07897492
50.71667	-0.08063507
50.73333	-0.08200226
50.75	-0.08766632
50.76667	-0.09450226
50.78333	-0.0959671
50.8	-0.0904007
50.81667	-0.08073273
50.83333	-0.07086945
50.85	-0.06432648
50.86667	-0.06051788
50.88333	-0.05885773
50.9	-0.06129913
50.91667	-0.06930695
50.93333	-0.07497101
50.95	-0.07575226
50.96667	-0.07702179
50.98333	-0.0825882
51	-0.09059601
51.01667	-0.09557648
51.03333	-0.09538116
51.05	-0.09274445
51.06667	-0.09147491
51.08333	-0.08952179
51.1	-0.08415069
51.11667	-0.07799836
51.13333	-0.07702179
51.15	-0.08043976
51.16667	-0.08239289
51.18333	-0.08083038
51.2	-0.08170929
51.21667	-0.08874054
51.23333	-0.09391632
51.25	-0.0881546
51.26667	-0.07545929
51.28333	-0.06999054
51.3	-0.07653351
51.31667	-0.08795929
51.33333	-0.09293976
51.35	-0.09069367
51.36667	-0.08776398
51.38333	-0.08854523
51.4	-0.09079132
51.41667	-0.09381866
51.43333	-0.09684601
51.45	-0.09557648
51.46667	-0.08668976
51.48333	-0.07838897
51.5	-0.08229522
51.51667	-0.09196319
51.53333	-0.09352569
51.55	-0.08747101
51.56667	-0.08395538
51.58333	-0.08551788
51.6	-0.08756866
51.61667	-0.08688507
51.63333	-0.08268585
51.65	-0.07506867
51.66667	-0.06852569
51.68333	-0.06979523
51.7	-0.07692413
51.71667	-0.08561554
51.73333	-0.09049835
51.75	-0.08786163
51.76667	-0.0803421
51.78333	-0.07897492
51.8	-0.08825226
51.81667	-0.1009476
51.83333	-0.1061234
51.85	-0.09606476
51.86667	-0.0794632
51.88333	-0.07038116
51.9	-0.07897492
51.91667	-0.09499054
51.93333	-0.1021194
51.95	-0.09850617
51.96667	-0.09567413
51.98333	-0.09889679
52	-0.1018265
52.01667	-0.09723663
52.03333	-0.08834992
52.05	-0.08229522
52.06667	-0.07760773
52.08333	-0.07116242
52.1	-0.06627961
52.11667	-0.0678421
52.13333	-0.07409211
52.15	-0.07897492
52.16667	-0.07692413
52.18333	-0.07057647
52.2	-0.06793976
52.21667	-0.07370148
52.23333	-0.08463898
52.25	-0.09293976
52.26667	-0.09606476
52.28333	-0.09450226
52.3	-0.08981476
52.31667	-0.08415069
52.33333	-0.07887726
52.35	-0.0732132
52.36667	-0.06930695
52.38333	-0.07370148
52.4	-0.08805694
52.41667	-0.1049515
52.43333	-0.1136429
52.45	-0.112471
52.46667	-0.1100296
52.48333	-0.109346
52.5	-0.103389
52.51667	-0.08893585
52.53333	-0.07135773
52.55	-0.05866241
52.56667	-0.05700226
52.58333	-0.0631546
52.6	-0.07047882
52.61667	-0.07379913
52.63333	-0.07311554
52.65	-0.07155304
52.66667	-0.07575226
52.68333	-0.08610382
52.7	-0.09811554
52.71667	-0.1107132
52.73333	-0.122139
52.75	-0.1268265
52.76667	-0.1180374
52.78333	-0.09967804
52.8	-0.08424835
52.81667	-0.07663117
52.83333	-0.07711945
52.85	-0.08376007
52.86667	-0.08952179
52.88333	-0.08844757
52.9	-0.08493195
52.91667	-0.0881546
52.93333	-0.09967804
52.95	-0.1105179
52.96667	-0.1132523
52.98333	-0.1109085
53	-0.1083694
53.01667	-0.1079788
53.03333	-0.1068069
53.05	-0.1017288
53.06667	-0.0928421
53.08333	-0.08327179
53.1	-0.07711945
53.11667	-0.07458039
53.13333	-0.07311554
53.15	-0.07516632
53.16667	-0.0825882
53.18333	-0.08668976
53.2	-0.0810257
53.21667	-0.07038116
53.23333	-0.06295929
53.25	-0.0615921
53.26667	-0.06627961
53.28333	-0.07575226
53.3	-0.08356476
53.31667	-0.08170929
53.33333	-0.07233429
53.35	-0.06188507
53.36667	-0.05358429
53.38333	-0.04792023
53.4	-0.04733429
53.41667	-0.04928742
53.43333	-0.04958038
53.45	-0.05036163
53.46667	-0.05700226
53.48333	-0.06715851
53.5	-0.06901398
53.51667	-0.06325226
53.53333	-0.0591507
53.55	-0.06305695
53.56667	-0.06833038
53.58333	-0.06862335
53.6	-0.06833038
53.61667	-0.07174835
53.63333	-0.07389679
53.65	-0.0709671
53.66667	-0.06862335
53.68333	-0.07184601
53.7	-0.07497101
53.71667	-0.07106476
53.73333	-0.06090851
53.75	-0.05329132
53.76667	-0.0522171
53.78333	-0.05739288
53.8	-0.06237335
53.81667	-0.06139679
53.83333	-0.05983429
53.85	-0.06461944
53.86667	-0.0756546
53.88333	-0.08522491
53.9	-0.08737335
53.91667	-0.08336945
53.93333	-0.07751007
53.95	-0.07575226
53.96667	-0.07751007
53.98333	-0.0794632
54	-0.07897492
54.01667	-0.07614288
54.03333	-0.07174835
54.05	-0.06569366
54.06667	-0.06012726
54.08333	-0.06198273
54.1	-0.0709671
54.11667	-0.08190461
54.13333	-0.08766632
54.15	-0.0865921
54.16667	-0.08131866
54.18333	-0.07575226
54.2	-0.07272492
54.21667	-0.07458039
54.23333	-0.07799836
54.25	-0.07545929
54.26667	-0.06588898
54.28333	-0.06198273
54.3	-0.07126007
54.31667	-0.08405304
54.33333	-0.08893585
54.35	-0.0825882
54.36667	-0.07047882
54.38333	-0.06198273
54.4	-0.06637726
54.41667	-0.07858429
54.43333	-0.08708038
54.45	-0.08209991
54.46667	-0.07038116
54.48333	-0.06520538
54.5	-0.06813507
54.51667	-0.06803741
54.53333	-0.05983429
54.55	-0.05251007
54.56667	-0.0522171
54.58333	-0.0591507
54.6	-0.06862335
54.61667	-0.07331085
54.63333	-0.07467804
54.65	-0.07614288
54.66667	-0.07907257
54.68333	-0.07926788
54.7	-0.07555695
54.71667	-0.0716507
54.73333	-0.0694046
54.75	-0.07028351
54.76667	-0.07516632
54.78333	-0.08415069
54.8	-0.09293976
54.81667	-0.09616242
54.83333	-0.09352569
54.85	-0.09137726
54.86667	-0.09333038
54.88333	-0.09469757
54.9	-0.09030304
54.91667	-0.08532257
54.93333	-0.08688507
54.95	-0.09186554
54.96667	-0.09381866
54.98333	-0.09206085
55	-0.08913116
